# Temperatura_=_4.905973597359736
# Concentracion g/m^3_=_4090.0
# C_Vs_to_Am_M_A/Vsm_=_65563218390.804596
# pendiente_HvsI_1/m_=_3716.3
# ordenada_HvsI_A/m_=_1297.0
# frecuencia_Hz_=_135072.79956423238
# Promedio de 606 ciclos

Tiempo_(s)	Campo_(V.s)	Magnetizacion_(V.s)	Campo_(kA/m)	Magnetizacion_(A/m)
0.000000e+00	-5.413924e-09	-2.577610e-09	-3.839277e+01	-1.653545e+02
1.000000e-08	-5.414043e-09	-2.577408e-09	-3.839361e+01	-1.653593e+02
2.000000e-08	-5.413949e-09	-2.576382e-09	-3.839295e+01	-1.653703e+02
3.000000e-08	-5.413586e-09	-2.575340e-09	-3.839037e+01	-1.653880e+02
4.000000e-08	-5.412839e-09	-2.573563e-09	-3.838508e+01	-1.654129e+02
5.000000e-08	-5.411599e-09	-2.571717e-09	-3.837628e+01	-1.654452e+02
6.000000e-08	-5.409782e-09	-2.576763e-09	-3.836340e+01	-1.654854e+02
7.000000e-08	-5.407336e-09	-2.585569e-09	-3.834605e+01	-1.655336e+02
8.000000e-08	-5.404267e-09	-2.570519e-09	-3.832429e+01	-1.655900e+02
9.000000e-08	-5.400639e-09	-2.542167e-09	-3.829856e+01	-1.656546e+02
1.000000e-07	-5.396578e-09	-2.559470e-09	-3.826976e+01	-1.657275e+02
1.100000e-07	-5.392266e-09	-2.596468e-09	-3.823918e+01	-1.658084e+02
1.200000e-07	-5.387806e-09	-2.580923e-09	-3.820756e+01	-1.658972e+02
1.300000e-07	-5.383106e-09	-2.524002e-09	-3.817423e+01	-1.659936e+02
1.400000e-07	-5.377994e-09	-2.535744e-09	-3.813797e+01	-1.660971e+02
1.500000e-07	-5.372451e-09	-2.592586e-09	-3.809867e+01	-1.662073e+02
1.600000e-07	-5.366569e-09	-2.573796e-09	-3.805695e+01	-1.663236e+02
1.700000e-07	-5.360323e-09	-2.512172e-09	-3.801266e+01	-1.664455e+02
1.800000e-07	-5.353626e-09	-2.523220e-09	-3.796517e+01	-1.665721e+02
1.900000e-07	-5.346523e-09	-2.587121e-09	-3.791480e+01	-1.667028e+02
2.000000e-07	-5.339155e-09	-2.571065e-09	-3.786255e+01	-1.668367e+02
2.100000e-07	-5.331574e-09	-2.534354e-09	-3.780878e+01	-1.669729e+02
2.200000e-07	-5.323735e-09	-2.557196e-09	-3.775320e+01	-1.671105e+02
2.300000e-07	-5.315617e-09	-2.592989e-09	-3.769563e+01	-1.672486e+02
2.400000e-07	-5.307144e-09	-2.564011e-09	-3.763554e+01	-1.673861e+02
2.500000e-07	-5.298123e-09	-2.556280e-09	-3.757157e+01	-1.675221e+02
2.600000e-07	-5.288403e-09	-2.599989e-09	-3.750264e+01	-1.676555e+02
2.700000e-07	-5.278051e-09	-2.611256e-09	-3.742923e+01	-1.677854e+02
2.800000e-07	-5.267189e-09	-2.575253e-09	-3.735220e+01	-1.679106e+02
2.900000e-07	-5.255875e-09	-2.583267e-09	-3.727197e+01	-1.680304e+02
3.000000e-07	-5.244154e-09	-2.613555e-09	-3.718885e+01	-1.681436e+02
3.100000e-07	-5.232046e-09	-2.590472e-09	-3.710299e+01	-1.682493e+02
3.200000e-07	-5.219548e-09	-2.566344e-09	-3.701436e+01	-1.683468e+02
3.300000e-07	-5.206666e-09	-2.589414e-09	-3.692300e+01	-1.684351e+02
3.400000e-07	-5.193411e-09	-2.603457e-09	-3.682901e+01	-1.685135e+02
3.500000e-07	-5.179780e-09	-2.583222e-09	-3.673235e+01	-1.685812e+02
3.600000e-07	-5.165774e-09	-2.587567e-09	-3.663302e+01	-1.686377e+02
3.700000e-07	-5.151369e-09	-2.597023e-09	-3.653087e+01	-1.686824e+02
3.800000e-07	-5.136458e-09	-2.581903e-09	-3.642513e+01	-1.687147e+02
3.900000e-07	-5.120930e-09	-2.572593e-09	-3.631501e+01	-1.687344e+02
4.000000e-07	-5.104829e-09	-2.582244e-09	-3.620083e+01	-1.687410e+02
4.100000e-07	-5.088294e-09	-2.568948e-09	-3.608358e+01	-1.687343e+02
4.200000e-07	-5.071419e-09	-2.559047e-09	-3.596391e+01	-1.687142e+02
4.300000e-07	-5.054250e-09	-2.573995e-09	-3.584216e+01	-1.686806e+02
4.400000e-07	-5.036809e-09	-2.579331e-09	-3.571847e+01	-1.686335e+02
4.500000e-07	-5.019080e-09	-2.556405e-09	-3.559274e+01	-1.685731e+02
4.600000e-07	-5.001018e-09	-2.553387e-09	-3.546466e+01	-1.684995e+02
4.700000e-07	-4.982572e-09	-2.561746e-09	-3.533385e+01	-1.684130e+02
4.800000e-07	-4.963714e-09	-2.557845e-09	-3.520012e+01	-1.683140e+02
4.900000e-07	-4.944461e-09	-2.546898e-09	-3.506359e+01	-1.682028e+02
5.000000e-07	-4.924885e-09	-2.548379e-09	-3.492476e+01	-1.680798e+02
5.100000e-07	-4.905072e-09	-2.549602e-09	-3.478426e+01	-1.679457e+02
5.200000e-07	-4.885057e-09	-2.551683e-09	-3.464232e+01	-1.678010e+02
5.300000e-07	-4.864817e-09	-2.548962e-09	-3.449879e+01	-1.676463e+02
5.400000e-07	-4.844285e-09	-2.540615e-09	-3.435319e+01	-1.674821e+02
5.500000e-07	-4.823395e-09	-2.533889e-09	-3.420505e+01	-1.673093e+02
5.600000e-07	-4.802124e-09	-2.537097e-09	-3.405421e+01	-1.671285e+02
5.700000e-07	-4.780512e-09	-2.534835e-09	-3.390094e+01	-1.669404e+02
5.800000e-07	-4.758602e-09	-2.524939e-09	-3.374557e+01	-1.667457e+02
5.900000e-07	-4.736396e-09	-2.518732e-09	-3.358810e+01	-1.665450e+02
6.000000e-07	-4.713862e-09	-2.521461e-09	-3.342830e+01	-1.663392e+02
6.100000e-07	-4.690968e-09	-2.521789e-09	-3.326594e+01	-1.661288e+02
6.200000e-07	-4.667722e-09	-2.512311e-09	-3.310110e+01	-1.659145e+02
6.300000e-07	-4.644182e-09	-2.502216e-09	-3.293416e+01	-1.656969e+02
6.400000e-07	-4.620413e-09	-2.500483e-09	-3.276560e+01	-1.654766e+02
6.500000e-07	-4.596444e-09	-2.502253e-09	-3.259563e+01	-1.652541e+02
6.600000e-07	-4.572253e-09	-2.496244e-09	-3.242407e+01	-1.650300e+02
6.700000e-07	-4.547764e-09	-2.488384e-09	-3.225041e+01	-1.648046e+02
6.800000e-07	-4.522867e-09	-2.484771e-09	-3.207386e+01	-1.645783e+02
6.900000e-07	-4.497472e-09	-2.485417e-09	-3.189377e+01	-1.643514e+02
7.000000e-07	-4.471544e-09	-2.480459e-09	-3.170990e+01	-1.641244e+02
7.100000e-07	-4.445095e-09	-2.471747e-09	-3.152234e+01	-1.638972e+02
7.200000e-07	-4.418177e-09	-2.464803e-09	-3.133145e+01	-1.636701e+02
7.300000e-07	-4.390875e-09	-2.466813e-09	-3.113784e+01	-1.634432e+02
7.400000e-07	-4.363284e-09	-2.466357e-09	-3.094219e+01	-1.632165e+02
7.500000e-07	-4.335481e-09	-2.458911e-09	-3.074502e+01	-1.629901e+02
7.600000e-07	-4.307496e-09	-2.449565e-09	-3.054656e+01	-1.627637e+02
7.700000e-07	-4.279316e-09	-2.447740e-09	-3.034672e+01	-1.625373e+02
7.800000e-07	-4.250895e-09	-2.445972e-09	-3.014517e+01	-1.623107e+02
7.900000e-07	-4.222178e-09	-2.440985e-09	-2.994153e+01	-1.620837e+02
8.000000e-07	-4.193133e-09	-2.433308e-09	-2.973556e+01	-1.618561e+02
8.100000e-07	-4.163764e-09	-2.430007e-09	-2.952729e+01	-1.616275e+02
8.200000e-07	-4.134106e-09	-2.429757e-09	-2.931697e+01	-1.613976e+02
8.300000e-07	-4.104185e-09	-2.427988e-09	-2.910478e+01	-1.611661e+02
8.400000e-07	-4.073998e-09	-2.421058e-09	-2.889071e+01	-1.609327e+02
8.500000e-07	-4.043534e-09	-2.415070e-09	-2.867468e+01	-1.606969e+02
8.600000e-07	-4.012791e-09	-2.411017e-09	-2.845666e+01	-1.604583e+02
8.700000e-07	-3.981785e-09	-2.406414e-09	-2.823678e+01	-1.602167e+02
8.800000e-07	-3.950535e-09	-2.398720e-09	-2.801518e+01	-1.599716e+02
8.900000e-07	-3.919053e-09	-2.391889e-09	-2.779192e+01	-1.597226e+02
9.000000e-07	-3.887360e-09	-2.389615e-09	-2.756717e+01	-1.594694e+02
9.100000e-07	-3.855492e-09	-2.389054e-09	-2.734118e+01	-1.592116e+02
9.200000e-07	-3.823450e-09	-2.386157e-09	-2.711395e+01	-1.589490e+02
9.300000e-07	-3.791196e-09	-2.381699e-09	-2.688522e+01	-1.586812e+02
9.400000e-07	-3.758682e-09	-2.378935e-09	-2.665465e+01	-1.584080e+02
9.500000e-07	-3.725858e-09	-2.375683e-09	-2.642188e+01	-1.581291e+02
9.600000e-07	-3.692664e-09	-2.369533e-09	-2.618649e+01	-1.578444e+02
9.700000e-07	-3.659037e-09	-2.361710e-09	-2.594802e+01	-1.575536e+02
9.800000e-07	-3.624953e-09	-2.356947e-09	-2.570632e+01	-1.572566e+02
9.900000e-07	-3.590442e-09	-2.353904e-09	-2.546159e+01	-1.569534e+02
1.000000e-06	-3.555554e-09	-2.351530e-09	-2.521418e+01	-1.566439e+02
1.010000e-06	-3.520340e-09	-2.348922e-09	-2.496446e+01	-1.563280e+02
1.020000e-06	-3.484863e-09	-2.346555e-09	-2.471287e+01	-1.560057e+02
1.030000e-06	-3.449182e-09	-2.341025e-09	-2.445985e+01	-1.556771e+02
1.040000e-06	-3.413344e-09	-2.333502e-09	-2.420570e+01	-1.553423e+02
1.050000e-06	-3.377361e-09	-2.323639e-09	-2.395053e+01	-1.550013e+02
1.060000e-06	-3.341222e-09	-2.313975e-09	-2.369425e+01	-1.546541e+02
1.070000e-06	-3.304904e-09	-2.305684e-09	-2.343670e+01	-1.543011e+02
1.080000e-06	-3.268380e-09	-2.299186e-09	-2.317769e+01	-1.539422e+02
1.090000e-06	-3.231623e-09	-2.293080e-09	-2.291702e+01	-1.535776e+02
1.100000e-06	-3.194609e-09	-2.289100e-09	-2.265454e+01	-1.532075e+02
1.110000e-06	-3.157346e-09	-2.285180e-09	-2.239029e+01	-1.528320e+02
1.120000e-06	-3.119853e-09	-2.280016e-09	-2.212441e+01	-1.524513e+02
1.130000e-06	-3.082149e-09	-2.273798e-09	-2.185703e+01	-1.520655e+02
1.140000e-06	-3.044246e-09	-2.266557e-09	-2.158824e+01	-1.516748e+02
1.150000e-06	-3.006149e-09	-2.258382e-09	-2.131808e+01	-1.512792e+02
1.160000e-06	-2.967861e-09	-2.250262e-09	-2.104656e+01	-1.508789e+02
1.170000e-06	-2.929373e-09	-2.241239e-09	-2.077363e+01	-1.504739e+02
1.180000e-06	-2.890668e-09	-2.232709e-09	-2.049915e+01	-1.500642e+02
1.190000e-06	-2.851737e-09	-2.226656e-09	-2.022307e+01	-1.496499e+02
1.200000e-06	-2.812586e-09	-2.222321e-09	-1.994543e+01	-1.492308e+02
1.210000e-06	-2.773236e-09	-2.216168e-09	-1.966638e+01	-1.488071e+02
1.220000e-06	-2.733716e-09	-2.207249e-09	-1.938613e+01	-1.483785e+02
1.230000e-06	-2.694050e-09	-2.198242e-09	-1.910483e+01	-1.479449e+02
1.240000e-06	-2.654260e-09	-2.189332e-09	-1.882266e+01	-1.475062e+02
1.250000e-06	-2.614368e-09	-2.179684e-09	-1.853976e+01	-1.470620e+02
1.260000e-06	-2.574379e-09	-2.169644e-09	-1.825618e+01	-1.466122e+02
1.270000e-06	-2.534282e-09	-2.161201e-09	-1.797184e+01	-1.461565e+02
1.280000e-06	-2.494069e-09	-2.154727e-09	-1.768666e+01	-1.456944e+02
1.290000e-06	-2.453722e-09	-2.148646e-09	-1.740055e+01	-1.452256e+02
1.300000e-06	-2.413214e-09	-2.140681e-09	-1.711328e+01	-1.447498e+02
1.310000e-06	-2.372509e-09	-2.133220e-09	-1.682463e+01	-1.442664e+02
1.320000e-06	-2.331577e-09	-2.125816e-09	-1.653435e+01	-1.437750e+02
1.330000e-06	-2.290389e-09	-2.115847e-09	-1.624227e+01	-1.432750e+02
1.340000e-06	-2.248921e-09	-2.103814e-09	-1.594821e+01	-1.427660e+02
1.350000e-06	-2.207158e-09	-2.093103e-09	-1.565205e+01	-1.422474e+02
1.360000e-06	-2.165090e-09	-2.083844e-09	-1.535373e+01	-1.417186e+02
1.370000e-06	-2.122737e-09	-2.075681e-09	-1.505339e+01	-1.411790e+02
1.380000e-06	-2.080139e-09	-2.066554e-09	-1.475131e+01	-1.406280e+02
1.390000e-06	-2.037314e-09	-2.055767e-09	-1.444761e+01	-1.400650e+02
1.400000e-06	-1.994281e-09	-2.046432e-09	-1.414245e+01	-1.394895e+02
1.410000e-06	-1.951066e-09	-2.038666e-09	-1.383599e+01	-1.389008e+02
1.420000e-06	-1.907692e-09	-2.027884e-09	-1.352840e+01	-1.382982e+02
1.430000e-06	-1.864183e-09	-2.014322e-09	-1.321986e+01	-1.376812e+02
1.440000e-06	-1.820557e-09	-2.001871e-09	-1.291048e+01	-1.370492e+02
1.450000e-06	-1.776826e-09	-1.991761e-09	-1.260037e+01	-1.364016e+02
1.460000e-06	-1.733006e-09	-1.981022e-09	-1.228962e+01	-1.357378e+02
1.470000e-06	-1.689108e-09	-1.967611e-09	-1.197831e+01	-1.350572e+02
1.480000e-06	-1.645136e-09	-1.953502e-09	-1.166649e+01	-1.343593e+02
1.490000e-06	-1.601094e-09	-1.941791e-09	-1.135416e+01	-1.336435e+02
1.500000e-06	-1.556977e-09	-1.931565e-09	-1.104130e+01	-1.329092e+02
1.510000e-06	-1.512788e-09	-1.919135e-09	-1.072794e+01	-1.321560e+02
1.520000e-06	-1.468530e-09	-1.904584e-09	-1.041408e+01	-1.313832e+02
1.530000e-06	-1.424200e-09	-1.891829e-09	-1.009971e+01	-1.305904e+02
1.540000e-06	-1.379795e-09	-1.881393e-09	-9.784820e+00	-1.297770e+02
1.550000e-06	-1.335318e-09	-1.869514e-09	-9.469407e+00	-1.289425e+02
1.560000e-06	-1.290762e-09	-1.855034e-09	-9.153441e+00	-1.280864e+02
1.570000e-06	-1.246122e-09	-1.841566e-09	-8.836873e+00	-1.272081e+02
1.580000e-06	-1.201389e-09	-1.830114e-09	-8.519650e+00	-1.263071e+02
1.590000e-06	-1.156556e-09	-1.817714e-09	-8.201724e+00	-1.253827e+02
1.600000e-06	-1.111626e-09	-1.803202e-09	-7.883100e+00	-1.244344e+02
1.610000e-06	-1.066599e-09	-1.788133e-09	-7.563796e+00	-1.234616e+02
1.620000e-06	-1.021483e-09	-1.774101e-09	-7.243855e+00	-1.224636e+02
1.630000e-06	-9.762807e-10	-1.759241e-09	-6.923303e+00	-1.214397e+02
1.640000e-06	-9.309973e-10	-1.741945e-09	-6.602177e+00	-1.203892e+02
1.650000e-06	-8.856458e-10	-1.724553e-09	-6.280568e+00	-1.193114e+02
1.660000e-06	-8.402378e-10	-1.709688e-09	-5.958558e+00	-1.182053e+02
1.670000e-06	-7.947747e-10	-1.695429e-09	-5.636158e+00	-1.170701e+02
1.680000e-06	-7.492603e-10	-1.678069e-09	-5.313393e+00	-1.159049e+02
1.690000e-06	-7.036990e-10	-1.657618e-09	-4.990296e+00	-1.147087e+02
1.700000e-06	-6.580915e-10	-1.638723e-09	-4.666871e+00	-1.134806e+02
1.710000e-06	-6.124404e-10	-1.621476e-09	-4.343137e+00	-1.122193e+02
1.720000e-06	-5.667514e-10	-1.602420e-09	-4.019134e+00	-1.109237e+02
1.730000e-06	-5.210218e-10	-1.581528e-09	-3.694842e+00	-1.095927e+02
1.740000e-06	-4.752495e-10	-1.561766e-09	-3.370249e+00	-1.082249e+02
1.750000e-06	-4.294431e-10	-1.542534e-09	-3.045413e+00	-1.068191e+02
1.760000e-06	-3.836050e-10	-1.522037e-09	-2.720352e+00	-1.053739e+02
1.770000e-06	-3.377367e-10	-1.499512e-09	-2.395077e+00	-1.038879e+02
1.780000e-06	-2.918422e-10	-1.477471e-09	-2.069617e+00	-1.023596e+02
1.790000e-06	-2.459303e-10	-1.456933e-09	-1.744033e+00	-1.007876e+02
1.800000e-06	-2.000092e-10	-1.433866e-09	-1.418384e+00	-9.917030e+01
1.810000e-06	-1.540860e-10	-1.407737e-09	-1.092720e+00	-9.750630e+01
1.820000e-06	-1.081652e-10	-1.381770e-09	-7.670732e-01	-9.579403e+01
1.830000e-06	-6.224387e-11	-1.356639e-09	-4.414223e-01	-9.403199e+01
1.840000e-06	-1.632512e-11	-1.330569e-09	-1.157898e-01	-9.221868e+01
1.850000e-06	2.958958e-11	-1.301624e-09	2.098141e-01	-9.035262e+01
1.860000e-06	7.550485e-11	-1.270578e-09	5.354219e-01	-8.843239e+01
1.870000e-06	1.214210e-10	-1.240291e-09	8.610359e-01	-8.645661e+01
1.880000e-06	1.673313e-10	-1.209726e-09	1.186608e+00	-8.442395e+01
1.890000e-06	2.132353e-10	-1.177100e-09	1.512137e+00	-8.233320e+01
1.900000e-06	2.591313e-10	-1.143678e-09	1.837608e+00	-8.018320e+01
1.910000e-06	3.050084e-10	-1.110170e-09	2.162945e+00	-7.797293e+01
1.920000e-06	3.508643e-10	-1.075091e-09	2.488132e+00	-7.570147e+01
1.930000e-06	3.966975e-10	-1.038954e-09	2.813158e+00	-7.336803e+01
1.940000e-06	4.425012e-10	-1.002679e-09	3.137975e+00	-7.097199e+01
1.950000e-06	4.882681e-10	-9.671970e-10	3.462530e+00	-6.851287e+01
1.960000e-06	5.339888e-10	-9.313707e-10	3.786758e+00	-6.599036e+01
1.970000e-06	5.796602e-10	-8.928500e-10	4.110636e+00	-6.340435e+01
1.980000e-06	6.252815e-10	-8.512397e-10	4.434159e+00	-6.075491e+01
1.990000e-06	6.708569e-10	-8.088488e-10	4.757357e+00	-5.804231e+01
2.000000e-06	7.163903e-10	-7.673223e-10	5.080257e+00	-5.526704e+01
2.010000e-06	7.618774e-10	-7.257630e-10	5.402828e+00	-5.242980e+01
2.020000e-06	8.073142e-10	-6.828411e-10	5.725042e+00	-4.953152e+01
2.030000e-06	8.526973e-10	-6.390042e-10	6.046875e+00	-4.657336e+01
2.040000e-06	8.980185e-10	-5.946273e-10	6.368270e+00	-4.355670e+01
2.050000e-06	9.432712e-10	-5.488549e-10	6.689178e+00	-4.048317e+01
2.060000e-06	9.884480e-10	-5.020900e-10	7.009548e+00	-3.735462e+01
2.070000e-06	1.033538e-09	-4.557348e-10	7.329304e+00	-3.417312e+01
2.080000e-06	1.078539e-09	-4.103865e-10	7.648430e+00	-3.094101e+01
2.090000e-06	1.123446e-09	-3.653781e-10	7.966880e+00	-2.766080e+01
2.100000e-06	1.168252e-09	-3.194771e-10	8.284620e+00	-2.433525e+01
2.110000e-06	1.212959e-09	-2.711185e-10	8.601663e+00	-2.096733e+01
2.120000e-06	1.257571e-09	-2.196474e-10	8.918025e+00	-1.756019e+01
2.130000e-06	1.302091e-09	-1.658546e-10	9.233738e+00	-1.411717e+01
2.140000e-06	1.346528e-09	-1.109760e-10	9.548864e+00	-1.064181e+01
2.150000e-06	1.390890e-09	-5.700106e-11	9.863462e+00	-7.137775e+00
2.160000e-06	1.435182e-09	-6.036207e-12	1.017756e+01	-3.608899e+00
2.170000e-06	1.479407e-09	4.263961e-11	1.049118e+01	-5.913909e-02
2.180000e-06	1.523566e-09	9.256150e-11	1.080433e+01	3.507438e+00
2.190000e-06	1.567661e-09	1.452739e-10	1.111703e+01	7.086669e+00
2.200000e-06	1.611699e-09	1.989561e-10	1.142933e+01	1.067432e+01
2.210000e-06	1.655677e-09	2.533040e-10	1.174120e+01	1.426610e+01
2.220000e-06	1.699598e-09	3.092166e-10	1.205267e+01	1.785768e+01
2.230000e-06	1.743459e-09	3.654134e-10	1.236371e+01	2.144472e+01
2.240000e-06	1.787248e-09	4.191075e-10	1.267424e+01	2.502290e+01
2.250000e-06	1.830952e-09	4.700877e-10	1.298417e+01	2.858790e+01
2.260000e-06	1.874550e-09	5.201351e-10	1.329334e+01	3.213547e+01
2.270000e-06	1.918022e-09	5.710407e-10	1.360163e+01	3.566143e+01
2.280000e-06	1.961346e-09	6.219435e-10	1.390885e+01	3.916167e+01
2.290000e-06	2.004493e-09	6.721440e-10	1.421482e+01	4.263220e+01
2.300000e-06	2.047440e-09	7.231674e-10	1.451939e+01	4.606914e+01
2.310000e-06	2.090164e-09	7.747316e-10	1.482236e+01	4.946879e+01
2.320000e-06	2.132635e-09	8.243795e-10	1.512354e+01	5.282755e+01
2.330000e-06	2.174831e-09	8.716045e-10	1.542277e+01	5.614205e+01
2.340000e-06	2.216740e-09	9.178422e-10	1.571996e+01	5.940908e+01
2.350000e-06	2.258349e-09	9.652417e-10	1.601503e+01	6.262562e+01
2.360000e-06	2.299663e-09	1.013522e-09	1.630800e+01	6.578888e+01
2.370000e-06	2.340706e-09	1.058991e-09	1.659906e+01	6.889630e+01
2.380000e-06	2.381506e-09	1.101076e-09	1.688839e+01	7.194550e+01
2.390000e-06	2.422091e-09	1.142375e-09	1.717620e+01	7.493439e+01
2.400000e-06	2.462491e-09	1.182378e-09	1.746269e+01	7.786109e+01
2.410000e-06	2.502744e-09	1.220035e-09	1.774815e+01	8.072396e+01
2.420000e-06	2.542875e-09	1.257936e-09	1.803274e+01	8.352160e+01
2.430000e-06	2.582902e-09	1.299345e-09	1.831659e+01	8.625287e+01
2.440000e-06	2.622836e-09	1.343796e-09	1.859978e+01	8.891684e+01
2.450000e-06	2.662673e-09	1.384822e-09	1.888229e+01	9.151285e+01
2.460000e-06	2.702397e-09	1.420168e-09	1.916399e+01	9.404044e+01
2.470000e-06	2.741984e-09	1.452839e-09	1.944473e+01	9.649939e+01
2.480000e-06	2.781400e-09	1.484002e-09	1.972424e+01	9.888968e+01
2.490000e-06	2.820611e-09	1.513404e-09	2.000231e+01	1.012115e+02
2.500000e-06	2.859598e-09	1.542664e-09	2.027878e+01	1.034653e+02
2.510000e-06	2.898355e-09	1.575426e-09	2.055362e+01	1.056516e+02
2.520000e-06	2.936886e-09	1.611258e-09	2.082687e+01	1.077711e+02
2.530000e-06	2.975207e-09	1.643949e-09	2.109862e+01	1.098247e+02
2.540000e-06	3.013336e-09	1.670380e-09	2.136901e+01	1.118136e+02
2.550000e-06	3.051285e-09	1.695290e-09	2.163812e+01	1.137389e+02
2.560000e-06	3.089051e-09	1.721971e-09	2.190594e+01	1.156018e+02
2.570000e-06	3.126621e-09	1.747053e-09	2.217237e+01	1.174038e+02
2.580000e-06	3.163973e-09	1.768897e-09	2.243725e+01	1.191463e+02
2.590000e-06	3.201086e-09	1.791620e-09	2.270044e+01	1.208309e+02
2.600000e-06	3.237952e-09	1.817986e-09	2.296188e+01	1.224592e+02
2.610000e-06	3.274573e-09	1.844108e-09	2.322157e+01	1.240328e+02
2.620000e-06	3.310972e-09	1.866505e-09	2.347970e+01	1.255535e+02
2.630000e-06	3.347187e-09	1.887752e-09	2.373652e+01	1.270229e+02
2.640000e-06	3.383257e-09	1.910173e-09	2.399230e+01	1.284426e+02
2.650000e-06	3.419205e-09	1.930792e-09	2.424723e+01	1.298145e+02
2.660000e-06	3.455028e-09	1.947224e-09	2.450127e+01	1.311401e+02
2.670000e-06	3.490693e-09	1.963554e-09	2.475419e+01	1.324211e+02
2.680000e-06	3.526148e-09	1.982761e-09	2.500562e+01	1.336591e+02
2.690000e-06	3.561326e-09	2.002046e-09	2.525508e+01	1.348557e+02
2.700000e-06	3.596149e-09	2.017777e-09	2.550203e+01	1.360123e+02
2.710000e-06	3.630555e-09	2.031608e-09	2.574602e+01	1.371304e+02
2.720000e-06	3.664506e-09	2.048164e-09	2.598678e+01	1.382113e+02
2.730000e-06	3.697998e-09	2.066628e-09	2.622428e+01	1.392564e+02
2.740000e-06	3.731061e-09	2.082710e-09	2.645875e+01	1.402669e+02
2.750000e-06	3.763759e-09	2.097015e-09	2.669062e+01	1.412441e+02
2.760000e-06	3.796168e-09	2.112872e-09	2.692045e+01	1.421889e+02
2.770000e-06	3.828356e-09	2.129691e-09	2.714871e+01	1.431024e+02
2.780000e-06	3.860378e-09	2.143535e-09	2.737580e+01	1.439857e+02
2.790000e-06	3.892252e-09	2.154055e-09	2.760183e+01	1.448395e+02
2.800000e-06	3.923957e-09	2.165442e-09	2.782667e+01	1.456647e+02
2.810000e-06	3.955445e-09	2.178923e-09	2.804997e+01	1.464622e+02
2.820000e-06	3.986659e-09	2.190766e-09	2.827132e+01	1.472326e+02
2.830000e-06	4.017567e-09	2.199279e-09	2.849050e+01	1.479766e+02
2.840000e-06	4.048159e-09	2.207665e-09	2.870745e+01	1.486949e+02
2.850000e-06	4.078459e-09	2.218548e-09	2.892232e+01	1.493880e+02
2.860000e-06	4.108498e-09	2.230926e-09	2.913534e+01	1.500565e+02
2.870000e-06	4.138292e-09	2.242102e-09	2.934663e+01	1.507009e+02
2.880000e-06	4.167839e-09	2.250994e-09	2.955616e+01	1.513219e+02
2.890000e-06	4.197109e-09	2.257543e-09	2.976372e+01	1.519198e+02
