# Temperatura_=_4.883640856672157
# Concentracion g/m^3_=_4090.0
# C_Vs_to_Am_M_A/Vsm_=_65563218390.804596
# pendiente_HvsI_1/m_=_3716.3
# ordenada_HvsI_A/m_=_1297.0
# frecuencia_Hz_=_135072.79956423238
# Promedio de 607 ciclos

Tiempo_(s)	Campo_(V.s)	Magnetizacion_(V.s)	Campo_(kA/m)	Magnetizacion_(A/m)
0.000000e+00	-5.413834e-09	-2.578179e-09	-3.839281e+01	-1.653879e+02
1.000000e-08	-5.413953e-09	-2.577987e-09	-3.839365e+01	-1.653929e+02
2.000000e-08	-5.413859e-09	-2.576967e-09	-3.839298e+01	-1.654040e+02
3.000000e-08	-5.413496e-09	-2.575927e-09	-3.839041e+01	-1.654217e+02
4.000000e-08	-5.412748e-09	-2.574153e-09	-3.838511e+01	-1.654466e+02
5.000000e-08	-5.411508e-09	-2.572309e-09	-3.837631e+01	-1.654790e+02
6.000000e-08	-5.409690e-09	-2.577355e-09	-3.836342e+01	-1.655192e+02
7.000000e-08	-5.407244e-09	-2.586158e-09	-3.834607e+01	-1.655675e+02
8.000000e-08	-5.404175e-09	-2.571101e-09	-3.832431e+01	-1.656239e+02
9.000000e-08	-5.400545e-09	-2.542719e-09	-3.829857e+01	-1.656885e+02
1.000000e-07	-5.396485e-09	-2.560021e-09	-3.826978e+01	-1.657613e+02
1.100000e-07	-5.392172e-09	-2.597074e-09	-3.823919e+01	-1.658422e+02
1.200000e-07	-5.387713e-09	-2.581537e-09	-3.820757e+01	-1.659309e+02
1.300000e-07	-5.383012e-09	-2.524574e-09	-3.817423e+01	-1.660272e+02
1.400000e-07	-5.377900e-09	-2.536330e-09	-3.813798e+01	-1.661306e+02
1.500000e-07	-5.372357e-09	-2.593212e-09	-3.809867e+01	-1.662407e+02
1.600000e-07	-5.366475e-09	-2.574412e-09	-3.805695e+01	-1.663570e+02
1.700000e-07	-5.360228e-09	-2.512685e-09	-3.801266e+01	-1.664787e+02
1.800000e-07	-5.353531e-09	-2.523765e-09	-3.796517e+01	-1.666051e+02
1.900000e-07	-5.346428e-09	-2.587714e-09	-3.791479e+01	-1.667357e+02
2.000000e-07	-5.339060e-09	-2.571667e-09	-3.786254e+01	-1.668693e+02
2.100000e-07	-5.331479e-09	-2.534892e-09	-3.780878e+01	-1.670053e+02
2.200000e-07	-5.323641e-09	-2.557767e-09	-3.775319e+01	-1.671427e+02
2.300000e-07	-5.315522e-09	-2.593564e-09	-3.769562e+01	-1.672805e+02
2.400000e-07	-5.307050e-09	-2.564529e-09	-3.763554e+01	-1.674178e+02
2.500000e-07	-5.298028e-09	-2.556765e-09	-3.757156e+01	-1.675535e+02
2.600000e-07	-5.288308e-09	-2.600509e-09	-3.750263e+01	-1.676866e+02
2.700000e-07	-5.277956e-09	-2.611766e-09	-3.742922e+01	-1.678162e+02
2.800000e-07	-5.267094e-09	-2.575685e-09	-3.735219e+01	-1.679411e+02
2.900000e-07	-5.255781e-09	-2.583719e-09	-3.727196e+01	-1.680605e+02
3.000000e-07	-5.244059e-09	-2.614053e-09	-3.718884e+01	-1.681734e+02
3.100000e-07	-5.231952e-09	-2.590923e-09	-3.710297e+01	-1.682788e+02
3.200000e-07	-5.219453e-09	-2.566697e-09	-3.701434e+01	-1.683759e+02
3.300000e-07	-5.206571e-09	-2.589814e-09	-3.692298e+01	-1.684639e+02
3.400000e-07	-5.193316e-09	-2.603873e-09	-3.682899e+01	-1.685419e+02
3.500000e-07	-5.179685e-09	-2.583601e-09	-3.673232e+01	-1.686092e+02
3.600000e-07	-5.165679e-09	-2.587915e-09	-3.663299e+01	-1.686653e+02
3.700000e-07	-5.151274e-09	-2.597425e-09	-3.653084e+01	-1.687096e+02
3.800000e-07	-5.136362e-09	-2.582290e-09	-3.642509e+01	-1.687415e+02
3.900000e-07	-5.120833e-09	-2.572971e-09	-3.631497e+01	-1.687608e+02
4.000000e-07	-5.104733e-09	-2.582617e-09	-3.620079e+01	-1.687669e+02
4.100000e-07	-5.088198e-09	-2.569310e-09	-3.608353e+01	-1.687598e+02
4.200000e-07	-5.071323e-09	-2.559378e-09	-3.596386e+01	-1.687393e+02
4.300000e-07	-5.054154e-09	-2.574366e-09	-3.584211e+01	-1.687052e+02
4.400000e-07	-5.036712e-09	-2.579700e-09	-3.571841e+01	-1.686577e+02
4.500000e-07	-5.018984e-09	-2.556735e-09	-3.559269e+01	-1.685969e+02
4.600000e-07	-5.000922e-09	-2.553709e-09	-3.546460e+01	-1.685229e+02
4.700000e-07	-4.982476e-09	-2.562103e-09	-3.533379e+01	-1.684359e+02
4.800000e-07	-4.963618e-09	-2.558173e-09	-3.520006e+01	-1.683364e+02
4.900000e-07	-4.944365e-09	-2.547192e-09	-3.506352e+01	-1.682247e+02
5.000000e-07	-4.924789e-09	-2.548691e-09	-3.492470e+01	-1.681013e+02
5.100000e-07	-4.904977e-09	-2.549938e-09	-3.478420e+01	-1.679668e+02
5.200000e-07	-4.884961e-09	-2.552011e-09	-3.464226e+01	-1.678216e+02
5.300000e-07	-4.864722e-09	-2.549267e-09	-3.449872e+01	-1.676663e+02
5.400000e-07	-4.844191e-09	-2.540897e-09	-3.435312e+01	-1.675017e+02
5.500000e-07	-4.823300e-09	-2.534154e-09	-3.420498e+01	-1.673284e+02
5.600000e-07	-4.802030e-09	-2.537360e-09	-3.405414e+01	-1.671471e+02
5.700000e-07	-4.780417e-09	-2.535077e-09	-3.390087e+01	-1.669585e+02
5.800000e-07	-4.758508e-09	-2.525170e-09	-3.374550e+01	-1.667633e+02
5.900000e-07	-4.736302e-09	-2.518976e-09	-3.358802e+01	-1.665621e+02
6.000000e-07	-4.713768e-09	-2.521725e-09	-3.342822e+01	-1.663558e+02
6.100000e-07	-4.690874e-09	-2.522030e-09	-3.326586e+01	-1.661448e+02
6.200000e-07	-4.667629e-09	-2.512525e-09	-3.310102e+01	-1.659300e+02
6.300000e-07	-4.644089e-09	-2.502406e-09	-3.293408e+01	-1.657119e+02
6.400000e-07	-4.620320e-09	-2.500672e-09	-3.276552e+01	-1.654910e+02
6.500000e-07	-4.596351e-09	-2.502433e-09	-3.259554e+01	-1.652680e+02
6.600000e-07	-4.572160e-09	-2.496414e-09	-3.242399e+01	-1.650433e+02
6.700000e-07	-4.547672e-09	-2.488544e-09	-3.225033e+01	-1.648173e+02
6.800000e-07	-4.522775e-09	-2.484948e-09	-3.207377e+01	-1.645904e+02
6.900000e-07	-4.497380e-09	-2.485589e-09	-3.189368e+01	-1.643630e+02
7.000000e-07	-4.471453e-09	-2.480611e-09	-3.170982e+01	-1.641353e+02
7.100000e-07	-4.445004e-09	-2.471873e-09	-3.152225e+01	-1.639075e+02
7.200000e-07	-4.418086e-09	-2.464925e-09	-3.133136e+01	-1.636798e+02
7.300000e-07	-4.390785e-09	-2.466927e-09	-3.113775e+01	-1.634523e+02
7.400000e-07	-4.363195e-09	-2.466458e-09	-3.094209e+01	-1.632250e+02
7.500000e-07	-4.335391e-09	-2.458994e-09	-3.074492e+01	-1.629979e+02
7.600000e-07	-4.307407e-09	-2.449644e-09	-3.054647e+01	-1.627708e+02
7.700000e-07	-4.279227e-09	-2.447815e-09	-3.034663e+01	-1.625438e+02
7.800000e-07	-4.250807e-09	-2.446035e-09	-3.014508e+01	-1.623165e+02
7.900000e-07	-4.222090e-09	-2.441023e-09	-2.994143e+01	-1.620888e+02
8.000000e-07	-4.193046e-09	-2.433332e-09	-2.973547e+01	-1.618605e+02
8.100000e-07	-4.163678e-09	-2.430026e-09	-2.952720e+01	-1.616312e+02
8.200000e-07	-4.134019e-09	-2.429765e-09	-2.931687e+01	-1.614006e+02
8.300000e-07	-4.104099e-09	-2.427979e-09	-2.910469e+01	-1.611684e+02
8.400000e-07	-4.073912e-09	-2.421033e-09	-2.889061e+01	-1.609342e+02
8.500000e-07	-4.043448e-09	-2.415039e-09	-2.867457e+01	-1.606977e+02
8.600000e-07	-4.012705e-09	-2.410975e-09	-2.845656e+01	-1.604584e+02
8.700000e-07	-3.981700e-09	-2.406356e-09	-2.823668e+01	-1.602160e+02
8.800000e-07	-3.950451e-09	-2.398644e-09	-2.801508e+01	-1.599701e+02
8.900000e-07	-3.918969e-09	-2.391808e-09	-2.779181e+01	-1.597203e+02
9.000000e-07	-3.887276e-09	-2.389531e-09	-2.756706e+01	-1.594664e+02
9.100000e-07	-3.855409e-09	-2.388960e-09	-2.734107e+01	-1.592078e+02
9.200000e-07	-3.823367e-09	-2.386041e-09	-2.711384e+01	-1.589444e+02
9.300000e-07	-3.791114e-09	-2.381570e-09	-2.688511e+01	-1.586758e+02
9.400000e-07	-3.758601e-09	-2.378792e-09	-2.665454e+01	-1.584018e+02
9.500000e-07	-3.725777e-09	-2.375528e-09	-2.642177e+01	-1.581221e+02
9.600000e-07	-3.692584e-09	-2.369357e-09	-2.618638e+01	-1.578366e+02
9.700000e-07	-3.658957e-09	-2.361524e-09	-2.594791e+01	-1.575450e+02
9.800000e-07	-3.624873e-09	-2.356755e-09	-2.570621e+01	-1.572472e+02
9.900000e-07	-3.590363e-09	-2.353708e-09	-2.546148e+01	-1.569431e+02
1.000000e-06	-3.555475e-09	-2.351320e-09	-2.521406e+01	-1.566328e+02
1.010000e-06	-3.520262e-09	-2.348694e-09	-2.496435e+01	-1.563160e+02
1.020000e-06	-3.484785e-09	-2.346308e-09	-2.471276e+01	-1.559929e+02
1.030000e-06	-3.449105e-09	-2.340768e-09	-2.445973e+01	-1.556635e+02
1.040000e-06	-3.413268e-09	-2.333233e-09	-2.420558e+01	-1.553278e+02
1.050000e-06	-3.377285e-09	-2.323354e-09	-2.395041e+01	-1.549859e+02
1.060000e-06	-3.341147e-09	-2.313676e-09	-2.369413e+01	-1.546379e+02
1.070000e-06	-3.304829e-09	-2.305376e-09	-2.343658e+01	-1.542839e+02
1.080000e-06	-3.268305e-09	-2.298871e-09	-2.317757e+01	-1.539242e+02
1.090000e-06	-3.231548e-09	-2.292751e-09	-2.291690e+01	-1.535587e+02
1.100000e-06	-3.194535e-09	-2.288753e-09	-2.265442e+01	-1.531877e+02
1.110000e-06	-3.157273e-09	-2.284818e-09	-2.239017e+01	-1.528114e+02
1.120000e-06	-3.119780e-09	-2.279646e-09	-2.212429e+01	-1.524298e+02
1.130000e-06	-3.082077e-09	-2.273416e-09	-2.185691e+01	-1.520431e+02
1.140000e-06	-3.044174e-09	-2.266158e-09	-2.158811e+01	-1.516515e+02
1.150000e-06	-3.006078e-09	-2.257968e-09	-2.131795e+01	-1.512550e+02
1.160000e-06	-2.967790e-09	-2.249841e-09	-2.104643e+01	-1.508537e+02
1.170000e-06	-2.929303e-09	-2.240810e-09	-2.077349e+01	-1.504478e+02
1.180000e-06	-2.890598e-09	-2.232269e-09	-2.049902e+01	-1.500372e+02
1.190000e-06	-2.851668e-09	-2.226204e-09	-2.022294e+01	-1.496219e+02
1.200000e-06	-2.812517e-09	-2.221859e-09	-1.994530e+01	-1.492020e+02
1.210000e-06	-2.773168e-09	-2.215696e-09	-1.966624e+01	-1.487773e+02
1.220000e-06	-2.733649e-09	-2.206762e-09	-1.938599e+01	-1.483478e+02
1.230000e-06	-2.693983e-09	-2.197735e-09	-1.910469e+01	-1.479132e+02
1.240000e-06	-2.654194e-09	-2.188810e-09	-1.882252e+01	-1.474735e+02
1.250000e-06	-2.614302e-09	-2.179150e-09	-1.853962e+01	-1.470284e+02
1.260000e-06	-2.574313e-09	-2.169098e-09	-1.825604e+01	-1.465777e+02
1.270000e-06	-2.534218e-09	-2.160636e-09	-1.797170e+01	-1.461210e+02
1.280000e-06	-2.494004e-09	-2.154146e-09	-1.768652e+01	-1.456580e+02
1.290000e-06	-2.453659e-09	-2.148052e-09	-1.740040e+01	-1.451883e+02
1.300000e-06	-2.413151e-09	-2.140078e-09	-1.711314e+01	-1.447114e+02
1.310000e-06	-2.372447e-09	-2.132604e-09	-1.682448e+01	-1.442271e+02
1.320000e-06	-2.331515e-09	-2.125183e-09	-1.653421e+01	-1.437347e+02
1.330000e-06	-2.290328e-09	-2.115200e-09	-1.624213e+01	-1.432338e+02
1.340000e-06	-2.248861e-09	-2.103155e-09	-1.594806e+01	-1.427238e+02
1.350000e-06	-2.207099e-09	-2.092428e-09	-1.565191e+01	-1.422042e+02
1.360000e-06	-2.165032e-09	-2.083150e-09	-1.535359e+01	-1.416744e+02
1.370000e-06	-2.122680e-09	-2.074977e-09	-1.505324e+01	-1.411338e+02
1.380000e-06	-2.080083e-09	-2.065841e-09	-1.475116e+01	-1.405819e+02
1.390000e-06	-2.037258e-09	-2.055044e-09	-1.444747e+01	-1.400180e+02
1.400000e-06	-1.994226e-09	-2.045693e-09	-1.414230e+01	-1.394415e+02
1.410000e-06	-1.951012e-09	-2.037908e-09	-1.383585e+01	-1.388517e+02
1.420000e-06	-1.907639e-09	-2.027109e-09	-1.352826e+01	-1.382482e+02
1.430000e-06	-1.864131e-09	-2.013531e-09	-1.321972e+01	-1.376303e+02
1.440000e-06	-1.820505e-09	-2.001062e-09	-1.291034e+01	-1.369973e+02
1.450000e-06	-1.776775e-09	-1.990933e-09	-1.260022e+01	-1.363488e+02
1.460000e-06	-1.732956e-09	-1.980180e-09	-1.228947e+01	-1.356840e+02
1.470000e-06	-1.689057e-09	-1.966756e-09	-1.197816e+01	-1.350025e+02
1.480000e-06	-1.645086e-09	-1.952632e-09	-1.166634e+01	-1.343036e+02
1.490000e-06	-1.601044e-09	-1.940909e-09	-1.135400e+01	-1.335869e+02
1.500000e-06	-1.556928e-09	-1.930670e-09	-1.104115e+01	-1.328517e+02
1.510000e-06	-1.512740e-09	-1.918229e-09	-1.072778e+01	-1.320975e+02
1.520000e-06	-1.468482e-09	-1.903661e-09	-1.041392e+01	-1.313238e+02
1.530000e-06	-1.424153e-09	-1.890887e-09	-1.009956e+01	-1.305301e+02
1.540000e-06	-1.379749e-09	-1.880431e-09	-9.784664e+00	-1.297158e+02
1.550000e-06	-1.335272e-09	-1.868533e-09	-9.469251e+00	-1.288805e+02
1.560000e-06	-1.290717e-09	-1.854041e-09	-9.153284e+00	-1.280235e+02
1.570000e-06	-1.246078e-09	-1.840567e-09	-8.836716e+00	-1.271443e+02
1.580000e-06	-1.201345e-09	-1.829110e-09	-8.519493e+00	-1.262424e+02
1.590000e-06	-1.156514e-09	-1.816706e-09	-8.201568e+00	-1.253172e+02
1.600000e-06	-1.111585e-09	-1.802184e-09	-7.882945e+00	-1.243681e+02
1.610000e-06	-1.066559e-09	-1.787099e-09	-7.563642e+00	-1.233945e+02
1.620000e-06	-1.021443e-09	-1.773049e-09	-7.243700e+00	-1.223957e+02
1.630000e-06	-9.762419e-10	-1.758170e-09	-6.923149e+00	-1.213710e+02
1.640000e-06	-9.309595e-10	-1.740856e-09	-6.602024e+00	-1.203197e+02
1.650000e-06	-8.856090e-10	-1.723457e-09	-6.280417e+00	-1.192411e+02
1.660000e-06	-8.402020e-10	-1.708594e-09	-5.958408e+00	-1.181343e+02
1.670000e-06	-7.947398e-10	-1.694338e-09	-5.636008e+00	-1.169984e+02
1.680000e-06	-7.492261e-10	-1.676968e-09	-5.313243e+00	-1.158326e+02
1.690000e-06	-7.036654e-10	-1.656505e-09	-4.990144e+00	-1.146358e+02
1.700000e-06	-6.580588e-10	-1.637600e-09	-4.666720e+00	-1.134070e+02
1.710000e-06	-6.124085e-10	-1.620340e-09	-4.342985e+00	-1.121452e+02
1.720000e-06	-5.667203e-10	-1.601266e-09	-4.018982e+00	-1.108491e+02
1.730000e-06	-5.209914e-10	-1.580364e-09	-3.694691e+00	-1.095175e+02
1.740000e-06	-4.752200e-10	-1.560600e-09	-3.370098e+00	-1.081493e+02
1.750000e-06	-4.294144e-10	-1.541371e-09	-3.045262e+00	-1.067431e+02
1.760000e-06	-3.835770e-10	-1.520876e-09	-2.720200e+00	-1.052975e+02
1.770000e-06	-3.377093e-10	-1.498347e-09	-2.394924e+00	-1.038111e+02
1.780000e-06	-2.918155e-10	-1.476303e-09	-2.069463e+00	-1.022825e+02
1.790000e-06	-2.459045e-10	-1.455762e-09	-1.743879e+00	-1.007103e+02
1.800000e-06	-1.999842e-10	-1.432689e-09	-1.418230e+00	-9.909281e+01
1.810000e-06	-1.540617e-10	-1.406555e-09	-1.092566e+00	-9.742868e+01
1.820000e-06	-1.081416e-10	-1.380585e-09	-7.669172e-01	-9.571634e+01
1.830000e-06	-6.222089e-11	-1.355454e-09	-4.412654e-01	-9.395429e+01
1.840000e-06	-1.630295e-11	-1.329386e-09	-1.156328e-01	-9.214102e+01
1.850000e-06	2.961102e-11	-1.300442e-09	2.099715e-01	-9.027507e+01
1.860000e-06	7.552559e-11	-1.269402e-09	5.355802e-01	-8.835501e+01
1.870000e-06	1.214411e-10	-1.239121e-09	8.611952e-01	-8.637947e+01
1.880000e-06	1.673508e-10	-1.208560e-09	1.186769e+00	-8.434712e+01
1.890000e-06	2.132541e-10	-1.175937e-09	1.512299e+00	-8.225675e+01
1.900000e-06	2.591494e-10	-1.142521e-09	1.837770e+00	-8.010721e+01
1.910000e-06	3.050257e-10	-1.109020e-09	2.163108e+00	-7.789747e+01
1.920000e-06	3.508810e-10	-1.073952e-09	2.488296e+00	-7.562661e+01
1.930000e-06	3.967135e-10	-1.037824e-09	2.813323e+00	-7.329386e+01
1.940000e-06	4.425165e-10	-1.001561e-09	3.138140e+00	-7.089857e+01
1.950000e-06	4.882826e-10	-9.660959e-10	3.462696e+00	-6.844029e+01
1.960000e-06	5.340027e-10	-9.302886e-10	3.786925e+00	-6.591870e+01
1.970000e-06	5.796734e-10	-8.917830e-10	4.110805e+00	-6.333368e+01
1.980000e-06	6.252939e-10	-8.501844e-10	4.434328e+00	-6.068530e+01
1.990000e-06	6.708686e-10	-8.078089e-10	4.757525e+00	-5.797385e+01
2.000000e-06	7.164012e-10	-7.663011e-10	5.080425e+00	-5.519980e+01
2.010000e-06	7.618874e-10	-7.247590e-10	5.402995e+00	-5.236386e+01
2.020000e-06	8.073233e-10	-6.818534e-10	5.725209e+00	-4.946696e+01
2.030000e-06	8.527054e-10	-6.380369e-10	6.047041e+00	-4.651024e+01
2.040000e-06	8.980259e-10	-5.936846e-10	6.368436e+00	-4.349510e+01
2.050000e-06	9.432778e-10	-5.479361e-10	6.689344e+00	-4.042315e+01
2.060000e-06	9.884536e-10	-5.011925e-10	7.009713e+00	-3.729624e+01
2.070000e-06	1.033543e-09	-4.548607e-10	7.329469e+00	-3.411646e+01
2.080000e-06	1.078543e-09	-4.095395e-10	7.648594e+00	-3.088611e+01
2.090000e-06	1.123449e-09	-3.645601e-10	7.967044e+00	-2.760773e+01
2.100000e-06	1.168254e-09	-3.186875e-10	8.284784e+00	-2.428407e+01
2.110000e-06	1.212960e-09	-2.703551e-10	8.601824e+00	-2.091807e+01
2.120000e-06	1.257571e-09	-2.189115e-10	8.918185e+00	-1.751291e+01
2.130000e-06	1.302090e-09	-1.651485e-10	9.233897e+00	-1.407191e+01
2.140000e-06	1.346526e-09	-1.102986e-10	9.549023e+00	-1.059859e+01
2.150000e-06	1.390888e-09	-5.635381e-11	9.863620e+00	-7.096642e+00
2.160000e-06	1.435179e-09	-5.424368e-12	1.017772e+01	-3.569875e+00
2.170000e-06	1.479403e-09	4.321368e-11	1.049134e+01	-2.224495e-02
2.180000e-06	1.523561e-09	9.309938e-11	1.080449e+01	3.542185e+00
2.190000e-06	1.567656e-09	1.457771e-10	1.111720e+01	7.119257e+00
2.200000e-06	1.611694e-09	1.994265e-10	1.142949e+01	1.070474e+01
2.210000e-06	1.655671e-09	2.537415e-10	1.174137e+01	1.429435e+01
2.220000e-06	1.699591e-09	3.096233e-10	1.205284e+01	1.788377e+01
2.230000e-06	1.743452e-09	3.657915e-10	1.236388e+01	2.146866e+01
2.240000e-06	1.787240e-09	4.194505e-10	1.267441e+01	2.504470e+01
2.250000e-06	1.830943e-09	4.703904e-10	1.298433e+01	2.860758e+01
2.260000e-06	1.874540e-09	5.204009e-10	1.329351e+01	3.215306e+01
2.270000e-06	1.918012e-09	5.712739e-10	1.360179e+01	3.567696e+01
2.280000e-06	1.961334e-09	6.221406e-10	1.390901e+01	3.917516e+01
2.290000e-06	2.004480e-09	6.723019e-10	1.421499e+01	4.264370e+01
2.300000e-06	2.047426e-09	7.232927e-10	1.451954e+01	4.607870e+01
2.310000e-06	2.090148e-09	7.748334e-10	1.482251e+01	4.947644e+01
2.320000e-06	2.132617e-09	8.244631e-10	1.512368e+01	5.283336e+01
2.330000e-06	2.174812e-09	8.716673e-10	1.542291e+01	5.614606e+01
2.340000e-06	2.216720e-09	9.178813e-10	1.572010e+01	5.941135e+01
2.350000e-06	2.258328e-09	9.652595e-10	1.601516e+01	6.262621e+01
2.360000e-06	2.299641e-09	1.013515e-09	1.630814e+01	6.578787e+01
2.370000e-06	2.340682e-09	1.058950e-09	1.659919e+01	6.889373e+01
2.380000e-06	2.381482e-09	1.101005e-09	1.688852e+01	7.194147e+01
2.390000e-06	2.422065e-09	1.142282e-09	1.717632e+01	7.492896e+01
2.400000e-06	2.462464e-09	1.182273e-09	1.746282e+01	7.785432e+01
2.410000e-06	2.502716e-09	1.219916e-09	1.774827e+01	8.071594e+01
2.420000e-06	2.542847e-09	1.257804e-09	1.803286e+01	8.351240e+01
2.430000e-06	2.582874e-09	1.299204e-09	1.831671e+01	8.624256e+01
2.440000e-06	2.622807e-09	1.343645e-09	1.859991e+01	8.890551e+01
2.450000e-06	2.662643e-09	1.384649e-09	1.888241e+01	9.150057e+01
2.460000e-06	2.702367e-09	1.419969e-09	1.916412e+01	9.402729e+01
2.470000e-06	2.741953e-09	1.452624e-09	1.944485e+01	9.648544e+01
2.480000e-06	2.781369e-09	1.483782e-09	1.972437e+01	9.887502e+01
2.490000e-06	2.820579e-09	1.513179e-09	2.000243e+01	1.011962e+02
2.500000e-06	2.859565e-09	1.542435e-09	2.027891e+01	1.034494e+02
2.510000e-06	2.898321e-09	1.575198e-09	2.055375e+01	1.056352e+02
2.520000e-06	2.936851e-09	1.611033e-09	2.082699e+01	1.077543e+02
2.530000e-06	2.975172e-09	1.643717e-09	2.109875e+01	1.098076e+02
2.540000e-06	3.013300e-09	1.670134e-09	2.136914e+01	1.117962e+02
2.550000e-06	3.051248e-09	1.695037e-09	2.163825e+01	1.137212e+02
2.560000e-06	3.089013e-09	1.721719e-09	2.190606e+01	1.155840e+02
2.570000e-06	3.126583e-09	1.746803e-09	2.217249e+01	1.173858e+02
2.580000e-06	3.163933e-09	1.768646e-09	2.243737e+01	1.191283e+02
2.590000e-06	3.201046e-09	1.791373e-09	2.270056e+01	1.208129e+02
2.600000e-06	3.237911e-09	1.817748e-09	2.296199e+01	1.224413e+02
2.610000e-06	3.274531e-09	1.843877e-09	2.322169e+01	1.240151e+02
2.620000e-06	3.310930e-09	1.866272e-09	2.347981e+01	1.255359e+02
2.630000e-06	3.347144e-09	1.887514e-09	2.373663e+01	1.270055e+02
2.640000e-06	3.383213e-09	1.909936e-09	2.399242e+01	1.284255e+02
2.650000e-06	3.419161e-09	1.930560e-09	2.424735e+01	1.297976e+02
2.660000e-06	3.454983e-09	1.946994e-09	2.450139e+01	1.311236e+02
2.670000e-06	3.490648e-09	1.963329e-09	2.475431e+01	1.324050e+02
2.680000e-06	3.526103e-09	1.982546e-09	2.500574e+01	1.336434e+02
2.690000e-06	3.561279e-09	2.001840e-09	2.525520e+01	1.348404e+02
2.700000e-06	3.596101e-09	2.017575e-09	2.550214e+01	1.359974e+02
2.710000e-06	3.630506e-09	2.031409e-09	2.574613e+01	1.371160e+02
2.720000e-06	3.664456e-09	2.047976e-09	2.598689e+01	1.381974e+02
2.730000e-06	3.697947e-09	2.066456e-09	2.622439e+01	1.392431e+02
2.740000e-06	3.731010e-09	2.082548e-09	2.645885e+01	1.402541e+02
2.750000e-06	3.763706e-09	2.096856e-09	2.669072e+01	1.412318e+02
2.760000e-06	3.796115e-09	2.112722e-09	2.692055e+01	1.421772e+02
2.770000e-06	3.828302e-09	2.129553e-09	2.714881e+01	1.430914e+02
2.780000e-06	3.860324e-09	2.143402e-09	2.737590e+01	1.439752e+02
2.790000e-06	3.892197e-09	2.153920e-09	2.760193e+01	1.448297e+02
2.800000e-06	3.923901e-09	2.165314e-09	2.782677e+01	1.456556e+02
2.810000e-06	3.955388e-09	2.178815e-09	2.805006e+01	1.464537e+02
2.820000e-06	3.986602e-09	2.190678e-09	2.827142e+01	1.472247e+02
2.830000e-06	4.017509e-09	2.199200e-09	2.849060e+01	1.479694e+02
2.840000e-06	4.048101e-09	2.207594e-09	2.870754e+01	1.486883e+02
2.850000e-06	4.078400e-09	2.218489e-09	2.892242e+01	1.493821e+02
2.860000e-06	4.108438e-09	2.230878e-09	2.913543e+01	1.500513e+02
2.870000e-06	4.138232e-09	2.242059e-09	2.934672e+01	1.506965e+02
2.880000e-06	4.167778e-09	2.250953e-09	2.955625e+01	1.513181e+02
2.890000e-06	4.197047e-09	2.257511e-09	2.976382e+01	1.519167e+02
