# Temperatura_=_7.68
# Concentracion g/m^3_=_4090.0
# C_Vs_to_Am_M_A/Vsm_=_65563218390.804596
# pendiente_HvsI_1/m_=_3716.3
# ordenada_HvsI_A/m_=_1297.0
# frecuencia_Hz_=_135088.91606783317

Tiempo_(s)	Campo_(V.s)	Magnetizacion_(V.s)	Campo_(kA/m)	Magnetizacion_(A/m)
0.000000e+00	-5.402240e-06	-1.351950e-09	-3.838370e+01	-9.213755e+01
1.000000e-08	-5.402386e-06	-1.357515e-09	-3.838474e+01	-9.201103e+01
2.000000e-08	-5.402336e-06	-1.367242e-09	-3.838439e+01	-9.189099e+01
3.000000e-08	-5.401972e-06	-1.374887e-09	-3.838180e+01	-9.177813e+01
4.000000e-08	-5.401134e-06	-1.374192e-09	-3.837584e+01	-9.167306e+01
5.000000e-08	-5.399767e-06	-1.364781e-09	-3.836613e+01	-9.157636e+01
6.000000e-08	-5.397894e-06	-1.356414e-09	-3.835282e+01	-9.148850e+01
7.000000e-08	-5.395444e-06	-1.364468e-09	-3.833542e+01	-9.140991e+01
8.000000e-08	-5.392332e-06	-1.355257e-09	-3.831331e+01	-9.134092e+01
9.000000e-08	-5.388623e-06	-1.312828e-09	-3.828695e+01	-9.128176e+01
1.000000e-07	-5.384534e-06	-1.307657e-09	-3.825790e+01	-9.123261e+01
1.100000e-07	-5.380275e-06	-1.354399e-09	-3.822764e+01	-9.119351e+01
1.200000e-07	-5.375904e-06	-1.444531e-09	-3.819658e+01	-9.116444e+01
1.300000e-07	-5.371117e-06	-1.352018e-09	-3.816257e+01	-9.114526e+01
1.400000e-07	-5.365773e-06	-1.310333e-09	-3.812460e+01	-9.113576e+01
1.500000e-07	-5.360145e-06	-1.370068e-09	-3.808461e+01	-9.113561e+01
1.600000e-07	-5.354239e-06	-1.424831e-09	-3.804265e+01	-9.114439e+01
1.700000e-07	-5.347858e-06	-1.338479e-09	-3.799731e+01	-9.116160e+01
1.800000e-07	-5.341030e-06	-1.240750e-09	-3.794880e+01	-9.118665e+01
1.900000e-07	-5.333854e-06	-1.350216e-09	-3.789781e+01	-9.121887e+01
2.000000e-07	-5.326500e-06	-1.399510e-09	-3.784556e+01	-9.125749e+01
2.100000e-07	-5.318995e-06	-1.374305e-09	-3.779223e+01	-9.130169e+01
2.200000e-07	-5.311203e-06	-1.323880e-09	-3.773687e+01	-9.135059e+01
2.300000e-07	-5.303095e-06	-1.424114e-09	-3.767926e+01	-9.140325e+01
2.400000e-07	-5.294603e-06	-1.425473e-09	-3.761892e+01	-9.145866e+01
2.500000e-07	-5.285504e-06	-1.386695e-09	-3.755428e+01	-9.151579e+01
2.600000e-07	-5.275576e-06	-1.389715e-09	-3.748374e+01	-9.157359e+01
2.700000e-07	-5.265103e-06	-1.479753e-09	-3.740933e+01	-9.163096e+01
2.800000e-07	-5.254258e-06	-1.428888e-09	-3.733227e+01	-9.168681e+01
2.900000e-07	-5.242960e-06	-1.367839e-09	-3.725199e+01	-9.174004e+01
3.000000e-07	-5.231233e-06	-1.428936e-09	-3.716868e+01	-9.178956e+01
3.100000e-07	-5.219086e-06	-1.476493e-09	-3.708237e+01	-9.183431e+01
3.200000e-07	-5.206569e-06	-1.407375e-09	-3.699343e+01	-9.187323e+01
3.300000e-07	-5.193694e-06	-1.378845e-09	-3.690195e+01	-9.190533e+01
3.400000e-07	-5.180450e-06	-1.439312e-09	-3.680785e+01	-9.192964e+01
3.500000e-07	-5.166772e-06	-1.434251e-09	-3.671067e+01	-9.194525e+01
3.600000e-07	-5.152627e-06	-1.397834e-09	-3.661017e+01	-9.195133e+01
3.700000e-07	-5.138180e-06	-1.410538e-09	-3.650752e+01	-9.194710e+01
3.800000e-07	-5.123165e-06	-1.407939e-09	-3.640083e+01	-9.193186e+01
3.900000e-07	-5.107399e-06	-1.382325e-09	-3.628881e+01	-9.190501e+01
4.000000e-07	-5.091141e-06	-1.406798e-09	-3.617330e+01	-9.186602e+01
4.100000e-07	-5.074577e-06	-1.412209e-09	-3.605561e+01	-9.181444e+01
4.200000e-07	-5.057684e-06	-1.377480e-09	-3.593558e+01	-9.174995e+01
4.300000e-07	-5.040475e-06	-1.371102e-09	-3.581331e+01	-9.167230e+01
4.400000e-07	-5.023025e-06	-1.430571e-09	-3.568933e+01	-9.158135e+01
4.500000e-07	-5.005304e-06	-1.402083e-09	-3.556341e+01	-9.147704e+01
4.600000e-07	-4.987183e-06	-1.362876e-09	-3.543466e+01	-9.135945e+01
4.700000e-07	-4.968708e-06	-1.360006e-09	-3.530339e+01	-9.122870e+01
4.800000e-07	-4.949953e-06	-1.390523e-09	-3.517014e+01	-9.108505e+01
4.900000e-07	-4.930702e-06	-1.362394e-09	-3.503335e+01	-9.092883e+01
5.000000e-07	-4.911111e-06	-1.353858e-09	-3.489416e+01	-9.076045e+01
5.100000e-07	-4.891344e-06	-1.344865e-09	-3.475371e+01	-9.058041e+01
5.200000e-07	-4.871382e-06	-1.367566e-09	-3.461188e+01	-9.038928e+01
5.300000e-07	-4.851147e-06	-1.373740e-09	-3.446811e+01	-9.018771e+01
5.400000e-07	-4.830682e-06	-1.374217e-09	-3.432270e+01	-8.997639e+01
5.500000e-07	-4.809832e-06	-1.343024e-09	-3.417456e+01	-8.975607e+01
5.600000e-07	-4.788535e-06	-1.352756e-09	-3.402324e+01	-8.952754e+01
5.700000e-07	-4.766913e-06	-1.361082e-09	-3.386961e+01	-8.929164e+01
5.800000e-07	-4.744952e-06	-1.348097e-09	-3.371358e+01	-8.904922e+01
5.900000e-07	-4.722792e-06	-1.316828e-09	-3.355612e+01	-8.880115e+01
6.000000e-07	-4.700384e-06	-1.324159e-09	-3.339691e+01	-8.854832e+01
6.100000e-07	-4.677475e-06	-1.341040e-09	-3.323414e+01	-8.829159e+01
6.200000e-07	-4.654155e-06	-1.343140e-09	-3.306845e+01	-8.803184e+01
6.300000e-07	-4.630567e-06	-1.326306e-09	-3.290085e+01	-8.776992e+01
6.400000e-07	-4.606777e-06	-1.321683e-09	-3.273182e+01	-8.750664e+01
6.500000e-07	-4.582842e-06	-1.335756e-09	-3.256176e+01	-8.724280e+01
6.600000e-07	-4.558665e-06	-1.339204e-09	-3.238998e+01	-8.697913e+01
6.700000e-07	-4.534215e-06	-1.320428e-09	-3.221626e+01	-8.671633e+01
6.800000e-07	-4.509329e-06	-1.300139e-09	-3.203944e+01	-8.645502e+01
6.900000e-07	-4.483869e-06	-1.306503e-09	-3.185855e+01	-8.619580e+01
7.000000e-07	-4.457855e-06	-1.311384e-09	-3.167371e+01	-8.593916e+01
7.100000e-07	-4.431287e-06	-1.307825e-09	-3.148494e+01	-8.568553e+01
7.200000e-07	-4.404259e-06	-1.291961e-09	-3.129290e+01	-8.543529e+01
7.300000e-07	-4.376926e-06	-1.299866e-09	-3.109870e+01	-8.518872e+01
7.400000e-07	-4.349347e-06	-1.306054e-09	-3.090274e+01	-8.494603e+01
7.500000e-07	-4.321562e-06	-1.304914e-09	-3.070532e+01	-8.470736e+01
7.600000e-07	-4.293603e-06	-1.283852e-09	-3.050668e+01	-8.447275e+01
7.700000e-07	-4.265442e-06	-1.282596e-09	-3.030659e+01	-8.424219e+01
7.800000e-07	-4.237080e-06	-1.282477e-09	-3.010507e+01	-8.401559e+01
7.900000e-07	-4.208473e-06	-1.283659e-09	-2.990182e+01	-8.379277e+01
8.000000e-07	-4.179597e-06	-1.271592e-09	-2.969665e+01	-8.357351e+01
8.100000e-07	-4.150338e-06	-1.272695e-09	-2.948876e+01	-8.335752e+01
8.200000e-07	-4.120703e-06	-1.274617e-09	-2.927820e+01	-8.314443e+01
8.300000e-07	-4.090840e-06	-1.279381e-09	-2.906602e+01	-8.293386e+01
8.400000e-07	-4.060730e-06	-1.266248e-09	-2.885208e+01	-8.272534e+01
8.500000e-07	-4.030376e-06	-1.258582e-09	-2.863641e+01	-8.251838e+01
8.600000e-07	-3.999743e-06	-1.254264e-09	-2.841876e+01	-8.231248e+01
8.700000e-07	-3.968739e-06	-1.258746e-09	-2.819847e+01	-8.210708e+01
8.800000e-07	-3.937461e-06	-1.252231e-09	-2.797623e+01	-8.190162e+01
8.900000e-07	-3.906035e-06	-1.243501e-09	-2.775295e+01	-8.169552e+01
9.000000e-07	-3.874416e-06	-1.237271e-09	-2.752829e+01	-8.148822e+01
9.100000e-07	-3.842603e-06	-1.240975e-09	-2.730225e+01	-8.127913e+01
9.200000e-07	-3.810615e-06	-1.240270e-09	-2.707497e+01	-8.106770e+01
9.300000e-07	-3.778445e-06	-1.235043e-09	-2.684640e+01	-8.085339e+01
9.400000e-07	-3.746126e-06	-1.234075e-09	-2.661677e+01	-8.063569e+01
9.500000e-07	-3.713438e-06	-1.236000e-09	-2.638451e+01	-8.041409e+01
9.600000e-07	-3.680114e-06	-1.234620e-09	-2.614775e+01	-8.018817e+01
9.700000e-07	-3.646250e-06	-1.220308e-09	-2.590714e+01	-7.995751e+01
9.800000e-07	-3.612063e-06	-1.206969e-09	-2.566424e+01	-7.972175e+01
9.900000e-07	-3.577616e-06	-1.201862e-09	-2.541948e+01	-7.948058e+01
1.000000e-06	-3.542796e-06	-1.203492e-09	-2.517208e+01	-7.923375e+01
1.010000e-06	-3.507707e-06	-1.200001e-09	-2.492277e+01	-7.898104e+01
1.020000e-06	-3.472332e-06	-1.199260e-09	-2.467142e+01	-7.872231e+01
1.030000e-06	-3.436705e-06	-1.197961e-09	-2.441829e+01	-7.845748e+01
1.040000e-06	-3.400926e-06	-1.198181e-09	-2.416407e+01	-7.818652e+01
1.050000e-06	-3.364945e-06	-1.187425e-09	-2.390843e+01	-7.790943e+01
1.060000e-06	-3.328830e-06	-1.175696e-09	-2.365182e+01	-7.762632e+01
1.070000e-06	-3.292579e-06	-1.164536e-09	-2.339425e+01	-7.733730e+01
1.080000e-06	-3.256113e-06	-1.160934e-09	-2.313516e+01	-7.704257e+01
1.090000e-06	-3.219354e-06	-1.155902e-09	-2.287398e+01	-7.674235e+01
1.100000e-06	-3.182359e-06	-1.157662e-09	-2.261113e+01	-7.643691e+01
1.110000e-06	-3.145205e-06	-1.158127e-09	-2.234714e+01	-7.612656e+01
1.120000e-06	-3.107790e-06	-1.160978e-09	-2.208130e+01	-7.581165e+01
1.130000e-06	-3.070142e-06	-1.155635e-09	-2.181380e+01	-7.549254e+01
1.140000e-06	-3.032250e-06	-1.147728e-09	-2.154458e+01	-7.516963e+01
1.150000e-06	-2.994127e-06	-1.138987e-09	-2.127371e+01	-7.484331e+01
1.160000e-06	-2.955999e-06	-1.133949e-09	-2.100280e+01	-7.451402e+01
1.170000e-06	-2.917717e-06	-1.127625e-09	-2.073080e+01	-7.418215e+01
1.180000e-06	-2.879158e-06	-1.123162e-09	-2.045683e+01	-7.384814e+01
1.190000e-06	-2.840382e-06	-1.118515e-09	-2.018133e+01	-7.351238e+01
1.200000e-06	-2.801304e-06	-1.118766e-09	-1.990367e+01	-7.317526e+01
1.210000e-06	-2.761963e-06	-1.120559e-09	-1.962415e+01	-7.283716e+01
1.220000e-06	-2.722468e-06	-1.118758e-09	-1.934353e+01	-7.249841e+01
1.230000e-06	-2.682863e-06	-1.112179e-09	-1.906213e+01	-7.215932e+01
1.240000e-06	-2.643164e-06	-1.104492e-09	-1.878007e+01	-7.182016e+01
1.250000e-06	-2.603324e-06	-1.099720e-09	-1.849700e+01	-7.148116e+01
1.260000e-06	-2.563420e-06	-1.094891e-09	-1.821347e+01	-7.114252e+01
1.270000e-06	-2.523391e-06	-1.088252e-09	-1.792906e+01	-7.080436e+01
1.280000e-06	-2.483264e-06	-1.083166e-09	-1.764395e+01	-7.046677e+01
1.290000e-06	-2.443085e-06	-1.082502e-09	-1.735848e+01	-7.012979e+01
1.300000e-06	-2.402710e-06	-1.080615e-09	-1.707160e+01	-6.979340e+01
1.310000e-06	-2.362146e-06	-1.074412e-09	-1.678339e+01	-6.945752e+01
1.320000e-06	-2.321291e-06	-1.065404e-09	-1.649311e+01	-6.912203e+01
1.330000e-06	-2.280112e-06	-1.061754e-09	-1.620052e+01	-6.878674e+01
1.340000e-06	-2.238586e-06	-1.058721e-09	-1.590548e+01	-6.845142e+01
1.350000e-06	-2.196839e-06	-1.055955e-09	-1.560886e+01	-6.811578e+01
1.360000e-06	-2.154985e-06	-1.049964e-09	-1.531148e+01	-6.777950e+01
1.370000e-06	-2.112817e-06	-1.045586e-09	-1.501187e+01	-6.744220e+01
1.380000e-06	-2.070376e-06	-1.040407e-09	-1.471032e+01	-6.710346e+01
1.390000e-06	-2.027689e-06	-1.035090e-09	-1.440702e+01	-6.676283e+01
1.400000e-06	-1.984604e-06	-1.027954e-09	-1.410090e+01	-6.641982e+01
1.410000e-06	-1.941321e-06	-1.022907e-09	-1.379337e+01	-6.607391e+01
1.420000e-06	-1.898027e-06	-1.017193e-09	-1.348576e+01	-6.572458e+01
1.430000e-06	-1.854606e-06	-1.014049e-09	-1.317725e+01	-6.537125e+01
1.440000e-06	-1.811031e-06	-1.011160e-09	-1.286764e+01	-6.501337e+01
1.450000e-06	-1.767356e-06	-1.005551e-09	-1.255732e+01	-6.465036e+01
1.460000e-06	-1.723616e-06	-9.987433e-10	-1.224655e+01	-6.428164e+01
1.470000e-06	-1.679836e-06	-9.947306e-10	-1.193548e+01	-6.390664e+01
1.480000e-06	-1.636012e-06	-9.884970e-10	-1.162410e+01	-6.352478e+01
1.490000e-06	-1.592099e-06	-9.814000e-10	-1.131210e+01	-6.313552e+01
1.500000e-06	-1.548131e-06	-9.741351e-10	-1.099969e+01	-6.273831e+01
1.510000e-06	-1.504007e-06	-9.698213e-10	-1.068619e+01	-6.233263e+01
1.520000e-06	-1.459780e-06	-9.651148e-10	-1.037195e+01	-6.191799e+01
1.530000e-06	-1.415591e-06	-9.587942e-10	-1.005798e+01	-6.149392e+01
1.540000e-06	-1.371299e-06	-9.502257e-10	-9.743277e+00	-6.105997e+01
1.550000e-06	-1.326941e-06	-9.417168e-10	-9.428112e+00	-6.061574e+01
1.560000e-06	-1.282486e-06	-9.334250e-10	-9.112249e+00	-6.016084e+01
1.570000e-06	-1.237892e-06	-9.259597e-10	-8.795400e+00	-5.969493e+01
1.580000e-06	-1.193265e-06	-9.202970e-10	-8.478323e+00	-5.921770e+01
1.590000e-06	-1.148508e-06	-9.129966e-10	-8.160315e+00	-5.872885e+01
1.600000e-06	-1.103604e-06	-9.051340e-10	-7.841264e+00	-5.822814e+01
1.610000e-06	-1.058565e-06	-8.969686e-10	-7.521259e+00	-5.771534e+01
1.620000e-06	-1.013535e-06	-8.882582e-10	-7.201317e+00	-5.719025e+01
1.630000e-06	-9.684498e-07	-8.787726e-10	-6.880977e+00	-5.665269e+01
1.640000e-06	-9.231367e-07	-8.682869e-10	-6.559021e+00	-5.610250e+01
1.650000e-06	-8.778296e-07	-8.587218e-10	-6.237107e+00	-5.553955e+01
1.660000e-06	-8.325742e-07	-8.512961e-10	-5.915561e+00	-5.496369e+01
1.670000e-06	-7.872260e-07	-8.418702e-10	-5.593355e+00	-5.437480e+01
1.680000e-06	-7.417721e-07	-8.328167e-10	-5.270399e+00	-5.377277e+01
1.690000e-06	-6.963071e-07	-8.242747e-10	-4.947363e+00	-5.315745e+01
1.700000e-06	-6.508774e-07	-8.161235e-10	-4.624578e+00	-5.252872e+01
1.710000e-06	-6.053939e-07	-8.059818e-10	-4.301412e+00	-5.188641e+01
1.720000e-06	-5.598046e-07	-7.958907e-10	-3.977493e+00	-5.123038e+01
1.730000e-06	-5.142241e-07	-7.841110e-10	-3.653637e+00	-5.056040e+01
1.740000e-06	-4.686252e-07	-7.734681e-10	-3.329651e+00	-4.987628e+01
1.750000e-06	-4.229425e-07	-7.620323e-10	-3.005068e+00	-4.917774e+01
1.760000e-06	-3.772368e-07	-7.513695e-10	-2.680323e+00	-4.846451e+01
1.770000e-06	-3.315213e-07	-7.404640e-10	-2.355507e+00	-4.773623e+01
1.780000e-06	-2.857366e-07	-7.311974e-10	-2.030200e+00	-4.699254e+01
1.790000e-06	-2.399445e-07	-7.200103e-10	-1.704841e+00	-4.623301e+01
1.800000e-06	-1.941888e-07	-7.053474e-10	-1.379739e+00	-4.545717e+01
1.810000e-06	-1.483295e-07	-6.901560e-10	-1.053902e+00	-4.466450e+01
1.820000e-06	-1.024138e-07	-6.784857e-10	-7.276647e-01	-4.385442e+01
1.830000e-06	-5.656931e-08	-6.676220e-10	-4.019332e-01	-4.302631e+01
1.840000e-06	-1.077080e-08	-6.537988e-10	-7.652807e-02	-4.217952e+01
1.850000e-06	3.495962e-08	-6.432265e-10	2.483932e-01	-4.131331e+01
1.860000e-06	8.070326e-08	-6.358489e-10	5.734084e-01	-4.042694e+01
1.870000e-06	1.264753e-07	-6.271016e-10	8.986252e-01	-3.951961e+01
1.880000e-06	1.722333e-07	-6.146769e-10	1.223742e+00	-3.859048e+01
1.890000e-06	2.181254e-07	-5.971666e-10	1.549813e+00	-3.763870e+01
1.900000e-06	2.639805e-07	-5.766585e-10	1.875620e+00	-3.666338e+01
1.910000e-06	3.097247e-07	-5.590453e-10	2.200639e+00	-3.566362e+01
1.920000e-06	3.554429e-07	-5.421296e-10	2.525474e+00	-3.463851e+01
1.930000e-06	4.011583e-07	-5.239642e-10	2.850288e+00	-3.358713e+01
1.940000e-06	4.468914e-07	-5.054513e-10	3.175229e+00	-3.250858e+01
1.950000e-06	4.924802e-07	-4.878493e-10	3.499144e+00	-3.140197e+01
1.960000e-06	5.379857e-07	-4.736691e-10	3.822467e+00	-3.026644e+01
1.970000e-06	5.835693e-07	-4.574005e-10	4.146345e+00	-2.910115e+01
1.980000e-06	6.291101e-07	-4.361168e-10	4.469919e+00	-2.790533e+01
1.990000e-06	6.745710e-07	-4.141359e-10	4.792925e+00	-2.667825e+01
2.000000e-06	7.200084e-07	-3.938178e-10	5.115764e+00	-2.541923e+01
2.010000e-06	7.654281e-07	-3.751291e-10	5.438478e+00	-2.412770e+01
2.020000e-06	8.108226e-07	-3.543628e-10	5.761013e+00	-2.280314e+01
2.030000e-06	8.561346e-07	-3.333619e-10	6.082961e+00	-2.144514e+01
2.040000e-06	9.012801e-07	-3.127555e-10	6.403726e+00	-2.005338e+01
2.050000e-06	9.463699e-07	-2.917003e-10	6.724096e+00	-1.862767e+01
2.060000e-06	9.914714e-07	-2.673040e-10	7.044549e+00	-1.716792e+01
2.070000e-06	1.036423e-06	-2.417881e-10	7.363938e+00	-1.567417e+01
2.080000e-06	1.081282e-06	-2.160901e-10	7.682669e+00	-1.414658e+01
2.090000e-06	1.126055e-06	-1.905032e-10	8.000788e+00	-1.258547e+01
2.100000e-06	1.170740e-06	-1.638721e-10	8.318278e+00	-1.099128e+01
2.110000e-06	1.215410e-06	-1.377589e-10	8.635663e+00	-9.364597e+00
2.120000e-06	1.259978e-06	-1.137964e-10	8.952327e+00	-7.706153e+00
2.130000e-06	1.304463e-06	-9.157742e-11	9.268401e+00	-6.016830e+00
2.140000e-06	1.348791e-06	-6.813432e-11	9.583354e+00	-4.297655e+00
2.150000e-06	1.392965e-06	-4.124100e-11	9.897222e+00	-2.549799e+00
2.160000e-06	1.437190e-06	-1.469604e-11	1.021144e+01	-7.745777e-01
2.170000e-06	1.481340e-06	9.914731e-12	1.052514e+01	1.026553e+00
2.180000e-06	1.525400e-06	3.475895e-11	1.083819e+01	2.852002e+00
2.190000e-06	1.569426e-06	6.498363e-11	1.115100e+01	4.700049e+00
2.200000e-06	1.613340e-06	9.835747e-11	1.146301e+01	6.568850e+00
2.210000e-06	1.657182e-06	1.269401e-10	1.177452e+01	8.456445e+00
2.220000e-06	1.700992e-06	1.526358e-10	1.208579e+01	1.036077e+01
2.230000e-06	1.744767e-06	1.820411e-10	1.239682e+01	1.227965e+01
2.240000e-06	1.788434e-06	2.157915e-10	1.270709e+01	1.421084e+01
2.250000e-06	1.831960e-06	2.474002e-10	1.301634e+01	1.615202e+01
2.260000e-06	1.875460e-06	2.745535e-10	1.332542e+01	1.810078e+01
2.270000e-06	1.918926e-06	3.019720e-10	1.363425e+01	2.005468e+01
2.280000e-06	1.962248e-06	3.333625e-10	1.394206e+01	2.201123e+01
2.290000e-06	2.005285e-06	3.673073e-10	1.424784e+01	2.396793e+01
2.300000e-06	2.047936e-06	3.966886e-10	1.455088e+01	2.592222e+01
2.310000e-06	2.090320e-06	4.233114e-10	1.485203e+01	2.787160e+01
2.320000e-06	2.132562e-06	4.540743e-10	1.515216e+01	2.981353e+01
2.330000e-06	2.174695e-06	4.878912e-10	1.545152e+01	3.174552e+01
2.340000e-06	2.216557e-06	5.189738e-10	1.574896e+01	3.366511e+01
2.350000e-06	2.257991e-06	5.450185e-10	1.604335e+01	3.556989e+01
2.360000e-06	2.299123e-06	5.713556e-10	1.633561e+01	3.745752e+01
2.370000e-06	2.340023e-06	6.017223e-10	1.662620e+01	3.932572e+01
2.380000e-06	2.380671e-06	6.311322e-10	1.691501e+01	4.117230e+01
2.390000e-06	2.421120e-06	6.580061e-10	1.720241e+01	4.299517e+01
2.400000e-06	2.461376e-06	6.836675e-10	1.748844e+01	4.479232e+01
2.410000e-06	2.501504e-06	7.101891e-10	1.777355e+01	4.656188e+01
2.420000e-06	2.541535e-06	7.398999e-10	1.805798e+01	4.830207e+01
2.430000e-06	2.581434e-06	7.705230e-10	1.834146e+01	5.001127e+01
2.440000e-06	2.621306e-06	7.973219e-10	1.862476e+01	5.168796e+01
2.450000e-06	2.661108e-06	8.214762e-10	1.890756e+01	5.333077e+01
2.460000e-06	2.700813e-06	8.456884e-10	1.918967e+01	5.493845e+01
2.470000e-06	2.740348e-06	8.683539e-10	1.947057e+01	5.650993e+01
2.480000e-06	2.779663e-06	8.876415e-10	1.974991e+01	5.804424e+01
2.490000e-06	2.818741e-06	9.088363e-10	2.002757e+01	5.954056e+01
2.500000e-06	2.857576e-06	9.351628e-10	2.030350e+01	6.099824e+01
2.510000e-06	2.896209e-06	9.613970e-10	2.057799e+01	6.241674e+01
2.520000e-06	2.934605e-06	9.842403e-10	2.085080e+01	6.379566e+01
2.530000e-06	2.972874e-06	1.007174e-09	2.112270e+01	6.513475e+01
2.540000e-06	3.010960e-06	1.029729e-09	2.139331e+01	6.643386e+01
2.550000e-06	3.048848e-06	1.045639e-09	2.166251e+01	6.769299e+01
2.560000e-06	3.086555e-06	1.057580e-09	2.193042e+01	6.891224e+01
2.570000e-06	3.123994e-06	1.071246e-09	2.219643e+01	7.009184e+01
2.580000e-06	3.161204e-06	1.088659e-09	2.246081e+01	7.123209e+01
2.590000e-06	3.198124e-06	1.106644e-09	2.272314e+01	7.233343e+01
2.600000e-06	3.234761e-06	1.125264e-09	2.298345e+01	7.339634e+01
2.610000e-06	3.271180e-06	1.146048e-09	2.324221e+01	7.442141e+01
2.620000e-06	3.307403e-06	1.165483e-09	2.349958e+01	7.540930e+01
2.630000e-06	3.343508e-06	1.181010e-09	2.375611e+01	7.636073e+01
2.640000e-06	3.379509e-06	1.191990e-09	2.401191e+01	7.727646e+01
2.650000e-06	3.415367e-06	1.200330e-09	2.426668e+01	7.815731e+01
2.660000e-06	3.451121e-06	1.207520e-09	2.452072e+01	7.900413e+01
2.670000e-06	3.486759e-06	1.211640e-09	2.477393e+01	7.981782e+01
2.680000e-06	3.522182e-06	1.217435e-09	2.502562e+01	8.059928e+01
2.690000e-06	3.557335e-06	1.230608e-09	2.527538e+01	8.134942e+01
2.700000e-06	3.592081e-06	1.250865e-09	2.552226e+01	8.206919e+01
2.710000e-06	3.626343e-06	1.272140e-09	2.576569e+01	8.275950e+01
2.720000e-06	3.660202e-06	1.283960e-09	2.600627e+01	8.342129e+01
2.730000e-06	3.693643e-06	1.290772e-09	2.624387e+01	8.405548e+01
2.740000e-06	3.726504e-06	1.294748e-09	2.647735e+01	8.466297e+01
2.750000e-06	3.758966e-06	1.296670e-09	2.670800e+01	8.524464e+01
2.760000e-06	3.791214e-06	1.297857e-09	2.693713e+01	8.580137e+01
2.770000e-06	3.823248e-06	1.301617e-09	2.716473e+01	8.633400e+01
2.780000e-06	3.855209e-06	1.314917e-09	2.739182e+01	8.684333e+01
2.790000e-06	3.887079e-06	1.331759e-09	2.761826e+01	8.733017e+01
2.800000e-06	3.918724e-06	1.340076e-09	2.784311e+01	8.779526e+01
2.810000e-06	3.950133e-06	1.339569e-09	2.806627e+01	8.823935e+01
2.820000e-06	3.981279e-06	1.338219e-09	2.828757e+01	8.866314e+01
2.830000e-06	4.012142e-06	1.340460e-09	2.850685e+01	8.906729e+01
2.840000e-06	4.042656e-06	1.343048e-09	2.872366e+01	8.945247e+01
2.850000e-06	4.072919e-06	1.347967e-09	2.893868e+01	8.981930e+01
2.860000e-06	4.102953e-06	1.360165e-09	2.915208e+01	9.016837e+01
2.870000e-06	4.132632e-06	1.375129e-09	2.936295e+01	9.050028e+01
2.880000e-06	4.162129e-06	1.385055e-09	2.957253e+01	9.081557e+01
2.890000e-06	4.191391e-06	1.383227e-09	2.978044e+01	9.111479e+01
2.900000e-06	4.220225e-06	1.376406e-09	2.998531e+01	9.139848e+01
