# Temperatura_=_17.62
# Concentracion g/m^3_=_4090.0
# C_Vs_to_Am_M_A/Vsm_=_65563218390.804596
# pendiente_HvsI_1/m_=_3716.3
# ordenada_HvsI_A/m_=_1297.0
# frecuencia_Hz_=_135086.3256897743

Tiempo_(s)	Campo_(V.s)	Magnetizacion_(V.s)	Campo_(kA/m)	Magnetizacion_(A/m)
0.000000e+00	-5.433398e-06	-1.251375e-09	-3.839365e+01	-8.710040e+01
1.000000e-08	-5.433445e-06	-1.246844e-09	-3.839398e+01	-8.697586e+01
2.000000e-08	-5.433238e-06	-1.244455e-09	-3.839252e+01	-8.685486e+01
3.000000e-08	-5.432739e-06	-1.244615e-09	-3.838900e+01	-8.673775e+01
4.000000e-08	-5.431843e-06	-1.249098e-09	-3.838266e+01	-8.662484e+01
5.000000e-08	-5.430364e-06	-1.251758e-09	-3.837222e+01	-8.651641e+01
6.000000e-08	-5.428314e-06	-1.248054e-09	-3.835773e+01	-8.641268e+01
7.000000e-08	-5.425684e-06	-1.243567e-09	-3.833915e+01	-8.631384e+01
8.000000e-08	-5.422360e-06	-1.267868e-09	-3.831566e+01	-8.622001e+01
9.000000e-08	-5.418434e-06	-1.282632e-09	-3.828792e+01	-8.613128e+01
1.000000e-07	-5.414145e-06	-1.272858e-09	-3.825761e+01	-8.604767e+01
1.100000e-07	-5.409709e-06	-1.256192e-09	-3.822626e+01	-8.596915e+01
1.200000e-07	-5.405198e-06	-1.247224e-09	-3.819438e+01	-8.589564e+01
1.300000e-07	-5.400402e-06	-1.237168e-09	-3.816050e+01	-8.582701e+01
1.400000e-07	-5.395119e-06	-1.241955e-09	-3.812317e+01	-8.576307e+01
1.500000e-07	-5.389469e-06	-1.238467e-09	-3.808324e+01	-8.570357e+01
1.600000e-07	-5.383441e-06	-1.270095e-09	-3.804065e+01	-8.564822e+01
1.700000e-07	-5.376856e-06	-1.209950e-09	-3.799411e+01	-8.559669e+01
1.800000e-07	-5.369864e-06	-1.240321e-09	-3.794470e+01	-8.554859e+01
1.900000e-07	-5.362639e-06	-1.264239e-09	-3.789365e+01	-8.550350e+01
2.000000e-07	-5.355226e-06	-1.297781e-09	-3.784127e+01	-8.546094e+01
2.100000e-07	-5.347484e-06	-1.219349e-09	-3.778656e+01	-8.542042e+01
2.200000e-07	-5.339459e-06	-1.232538e-09	-3.772986e+01	-8.538141e+01
2.300000e-07	-5.331243e-06	-1.294356e-09	-3.767180e+01	-8.534335e+01
2.400000e-07	-5.322708e-06	-1.311014e-09	-3.761149e+01	-8.530567e+01
2.500000e-07	-5.313409e-06	-1.285141e-09	-3.754578e+01	-8.526777e+01
2.600000e-07	-5.303327e-06	-1.308555e-09	-3.747454e+01	-8.522905e+01
2.700000e-07	-5.292643e-06	-1.358924e-09	-3.739904e+01	-8.518891e+01
2.800000e-07	-5.281387e-06	-1.320689e-09	-3.731951e+01	-8.514674e+01
2.900000e-07	-5.269800e-06	-1.288121e-09	-3.723763e+01	-8.510193e+01
3.000000e-07	-5.257885e-06	-1.306147e-09	-3.715343e+01	-8.505390e+01
3.100000e-07	-5.245543e-06	-1.354212e-09	-3.706623e+01	-8.500207e+01
3.200000e-07	-5.232761e-06	-1.316678e-09	-3.697591e+01	-8.494587e+01
3.300000e-07	-5.219633e-06	-1.341438e-09	-3.688314e+01	-8.488480e+01
3.400000e-07	-5.206062e-06	-1.339015e-09	-3.678724e+01	-8.481833e+01
3.500000e-07	-5.192119e-06	-1.340255e-09	-3.668872e+01	-8.474602e+01
3.600000e-07	-5.177702e-06	-1.307600e-09	-3.658684e+01	-8.466742e+01
3.700000e-07	-5.162825e-06	-1.335256e-09	-3.648172e+01	-8.458216e+01
3.800000e-07	-5.147458e-06	-1.286725e-09	-3.637313e+01	-8.448990e+01
3.900000e-07	-5.131540e-06	-1.283768e-09	-3.626066e+01	-8.439033e+01
4.000000e-07	-5.115306e-06	-1.312877e-09	-3.614594e+01	-8.428321e+01
4.100000e-07	-5.098571e-06	-1.340936e-09	-3.602769e+01	-8.416834e+01
4.200000e-07	-5.081434e-06	-1.291239e-09	-3.590660e+01	-8.404558e+01
4.300000e-07	-5.064163e-06	-1.306778e-09	-3.578456e+01	-8.391483e+01
4.400000e-07	-5.046630e-06	-1.325367e-09	-3.566066e+01	-8.377605e+01
4.500000e-07	-5.028731e-06	-1.309658e-09	-3.553418e+01	-8.362925e+01
4.600000e-07	-5.010441e-06	-1.277906e-09	-3.540494e+01	-8.347449e+01
4.700000e-07	-4.991720e-06	-1.292439e-09	-3.527266e+01	-8.331188e+01
4.800000e-07	-4.972580e-06	-1.286301e-09	-3.513741e+01	-8.314156e+01
4.900000e-07	-4.953104e-06	-1.282212e-09	-3.499978e+01	-8.296375e+01
5.000000e-07	-4.933391e-06	-1.286467e-09	-3.486049e+01	-8.277868e+01
5.100000e-07	-4.913502e-06	-1.276818e-09	-3.471995e+01	-8.258662e+01
5.200000e-07	-4.893362e-06	-1.269745e-09	-3.457763e+01	-8.238790e+01
5.300000e-07	-4.872919e-06	-1.285316e-09	-3.443318e+01	-8.218285e+01
5.400000e-07	-4.852108e-06	-1.283902e-09	-3.428612e+01	-8.197185e+01
5.500000e-07	-4.830899e-06	-1.257697e-09	-3.413626e+01	-8.175530e+01
5.600000e-07	-4.809385e-06	-1.264051e-09	-3.398423e+01	-8.153361e+01
5.700000e-07	-4.787611e-06	-1.267796e-09	-3.383037e+01	-8.130719e+01
5.800000e-07	-4.765472e-06	-1.255625e-09	-3.367394e+01	-8.107650e+01
5.900000e-07	-4.743053e-06	-1.237526e-09	-3.351552e+01	-8.084198e+01
6.000000e-07	-4.720319e-06	-1.243703e-09	-3.335487e+01	-8.060405e+01
6.100000e-07	-4.697138e-06	-1.243740e-09	-3.319107e+01	-8.036317e+01
6.200000e-07	-4.673640e-06	-1.252677e-09	-3.302503e+01	-8.011977e+01
6.300000e-07	-4.649955e-06	-1.241417e-09	-3.285766e+01	-7.987425e+01
6.400000e-07	-4.626082e-06	-1.238296e-09	-3.268897e+01	-7.962702e+01
6.500000e-07	-4.601958e-06	-1.231772e-09	-3.251851e+01	-7.937847e+01
6.600000e-07	-4.577607e-06	-1.234947e-09	-3.234643e+01	-7.912894e+01
6.700000e-07	-4.552903e-06	-1.214190e-09	-3.217187e+01	-7.887878e+01
6.800000e-07	-4.527593e-06	-1.211501e-09	-3.199302e+01	-7.862828e+01
6.900000e-07	-4.501678e-06	-1.210948e-09	-3.180990e+01	-7.837771e+01
7.000000e-07	-4.475351e-06	-1.221192e-09	-3.162387e+01	-7.812733e+01
7.100000e-07	-4.448678e-06	-1.213702e-09	-3.143539e+01	-7.787732e+01
7.200000e-07	-4.421614e-06	-1.210054e-09	-3.124415e+01	-7.762786e+01
7.300000e-07	-4.394144e-06	-1.199653e-09	-3.105004e+01	-7.737909e+01
7.400000e-07	-4.366397e-06	-1.202775e-09	-3.085398e+01	-7.713110e+01
7.500000e-07	-4.338525e-06	-1.193913e-09	-3.065703e+01	-7.688396e+01
7.600000e-07	-4.310434e-06	-1.185152e-09	-3.045853e+01	-7.663768e+01
7.700000e-07	-4.282051e-06	-1.178709e-09	-3.025797e+01	-7.639226e+01
7.800000e-07	-4.253291e-06	-1.183833e-09	-3.005474e+01	-7.614766e+01
7.900000e-07	-4.224175e-06	-1.185700e-09	-2.984900e+01	-7.590382e+01
8.000000e-07	-4.194829e-06	-1.183961e-09	-2.964164e+01	-7.566061e+01
8.100000e-07	-4.165237e-06	-1.177026e-09	-2.943253e+01	-7.541793e+01
8.200000e-07	-4.135457e-06	-1.170379e-09	-2.922210e+01	-7.517561e+01
8.300000e-07	-4.105346e-06	-1.163790e-09	-2.900933e+01	-7.493349e+01
8.400000e-07	-4.074821e-06	-1.154333e-09	-2.879363e+01	-7.469136e+01
8.500000e-07	-4.044078e-06	-1.149203e-09	-2.857639e+01	-7.444902e+01
8.600000e-07	-4.013161e-06	-1.146748e-09	-2.835793e+01	-7.420625e+01
8.700000e-07	-3.981860e-06	-1.148341e-09	-2.813675e+01	-7.396282e+01
8.800000e-07	-3.950268e-06	-1.144480e-09	-2.791351e+01	-7.371849e+01
8.900000e-07	-3.918559e-06	-1.139514e-09	-2.768945e+01	-7.347303e+01
9.000000e-07	-3.886673e-06	-1.127940e-09	-2.746414e+01	-7.322618e+01
9.100000e-07	-3.854615e-06	-1.122020e-09	-2.723760e+01	-7.297772e+01
9.200000e-07	-3.822325e-06	-1.114283e-09	-2.700944e+01	-7.272742e+01
9.300000e-07	-3.789863e-06	-1.119677e-09	-2.678005e+01	-7.247505e+01
9.400000e-07	-3.757141e-06	-1.123492e-09	-2.654883e+01	-7.222041e+01
9.500000e-07	-3.723962e-06	-1.130817e-09	-2.631438e+01	-7.196329e+01
9.600000e-07	-3.690260e-06	-1.125800e-09	-2.607624e+01	-7.170352e+01
9.700000e-07	-3.656124e-06	-1.117477e-09	-2.583502e+01	-7.144094e+01
9.800000e-07	-3.621494e-06	-1.100471e-09	-2.559032e+01	-7.117539e+01
9.900000e-07	-3.586419e-06	-1.089756e-09	-2.534247e+01	-7.090676e+01
1.000000e-06	-3.551118e-06	-1.081316e-09	-2.509303e+01	-7.063494e+01
1.010000e-06	-3.515643e-06	-1.084027e-09	-2.484235e+01	-7.035984e+01
1.020000e-06	-3.479965e-06	-1.089261e-09	-2.459024e+01	-7.008140e+01
1.030000e-06	-3.444090e-06	-1.097748e-09	-2.433674e+01	-6.979958e+01
1.040000e-06	-3.408063e-06	-1.097448e-09	-2.408217e+01	-6.951437e+01
1.050000e-06	-3.371841e-06	-1.091192e-09	-2.382621e+01	-6.922576e+01
1.060000e-06	-3.335540e-06	-1.074370e-09	-2.356970e+01	-6.893378e+01
1.070000e-06	-3.299046e-06	-1.056804e-09	-2.331183e+01	-6.863845e+01
1.080000e-06	-3.262279e-06	-1.041724e-09	-2.305202e+01	-6.833984e+01
1.090000e-06	-3.225314e-06	-1.037323e-09	-2.279082e+01	-6.803801e+01
1.100000e-06	-3.188104e-06	-1.041369e-09	-2.252788e+01	-6.773305e+01
1.110000e-06	-3.150668e-06	-1.047662e-09	-2.226335e+01	-6.742505e+01
1.120000e-06	-3.113024e-06	-1.050939e-09	-2.199735e+01	-6.711410e+01
1.130000e-06	-3.075135e-06	-1.046316e-09	-2.172962e+01	-6.680033e+01
1.140000e-06	-3.036974e-06	-1.036700e-09	-2.145996e+01	-6.648385e+01
1.150000e-06	-2.998615e-06	-1.021960e-09	-2.118891e+01	-6.616476e+01
1.160000e-06	-2.960220e-06	-1.007711e-09	-2.091760e+01	-6.584318e+01
1.170000e-06	-2.921522e-06	-9.980262e-10	-2.064416e+01	-6.551924e+01
1.180000e-06	-2.882466e-06	-9.964518e-10	-2.036817e+01	-6.519303e+01
1.190000e-06	-2.843251e-06	-9.966388e-10	-2.009108e+01	-6.486466e+01
1.200000e-06	-2.803900e-06	-1.002673e-09	-1.981301e+01	-6.453421e+01
1.210000e-06	-2.764422e-06	-1.006664e-09	-1.953405e+01	-6.420178e+01
1.220000e-06	-2.724726e-06	-1.004056e-09	-1.925355e+01	-6.386743e+01
1.230000e-06	-2.684876e-06	-9.911145e-10	-1.897196e+01	-6.353122e+01
1.240000e-06	-2.644981e-06	-9.790943e-10	-1.869005e+01	-6.319319e+01
1.250000e-06	-2.605042e-06	-9.675774e-10	-1.840783e+01	-6.285335e+01
1.260000e-06	-2.564946e-06	-9.623912e-10	-1.812450e+01	-6.251173e+01
1.270000e-06	-2.524674e-06	-9.580626e-10	-1.783993e+01	-6.216830e+01
1.280000e-06	-2.484262e-06	-9.580100e-10	-1.755437e+01	-6.182305e+01
1.290000e-06	-2.443737e-06	-9.571791e-10	-1.726802e+01	-6.147591e+01
1.300000e-06	-2.403020e-06	-9.541639e-10	-1.698030e+01	-6.112682e+01
1.310000e-06	-2.362017e-06	-9.436924e-10	-1.669056e+01	-6.077571e+01
1.320000e-06	-2.320723e-06	-9.334401e-10	-1.639877e+01	-6.042245e+01
1.330000e-06	-2.279110e-06	-9.266223e-10	-1.610472e+01	-6.006694e+01
1.340000e-06	-2.237183e-06	-9.252956e-10	-1.580846e+01	-5.970903e+01
1.350000e-06	-2.195055e-06	-9.244260e-10	-1.551077e+01	-5.934857e+01
1.360000e-06	-2.152678e-06	-9.198721e-10	-1.521133e+01	-5.898538e+01
1.370000e-06	-2.109984e-06	-9.107590e-10	-1.490964e+01	-5.861929e+01
1.380000e-06	-2.067059e-06	-9.045704e-10	-1.460632e+01	-5.825010e+01
1.390000e-06	-2.023939e-06	-8.982040e-10	-1.430162e+01	-5.787759e+01
1.400000e-06	-1.980612e-06	-8.883890e-10	-1.399546e+01	-5.750155e+01
1.410000e-06	-1.937164e-06	-8.804052e-10	-1.368845e+01	-5.712175e+01
1.420000e-06	-1.893566e-06	-8.797042e-10	-1.338038e+01	-5.673795e+01
1.430000e-06	-1.849827e-06	-8.806582e-10	-1.307130e+01	-5.634990e+01
1.440000e-06	-1.806022e-06	-8.746604e-10	-1.276177e+01	-5.595735e+01
1.450000e-06	-1.762127e-06	-8.627900e-10	-1.245160e+01	-5.556006e+01
1.460000e-06	-1.718223e-06	-8.510470e-10	-1.214136e+01	-5.515774e+01
1.470000e-06	-1.674236e-06	-8.454745e-10	-1.183054e+01	-5.475014e+01
1.480000e-06	-1.630130e-06	-8.411178e-10	-1.151888e+01	-5.433700e+01
1.490000e-06	-1.585938e-06	-8.365352e-10	-1.120661e+01	-5.391802e+01
1.500000e-06	-1.541711e-06	-8.315803e-10	-1.089409e+01	-5.349295e+01
1.510000e-06	-1.497451e-06	-8.281468e-10	-1.058133e+01	-5.306150e+01
1.520000e-06	-1.453114e-06	-8.197824e-10	-1.026804e+01	-5.262338e+01
1.530000e-06	-1.408641e-06	-8.062029e-10	-9.953787e+00	-5.217830e+01
1.540000e-06	-1.364091e-06	-7.912759e-10	-9.638983e+00	-5.172599e+01
1.550000e-06	-1.319468e-06	-7.809954e-10	-9.323667e+00	-5.126612e+01
1.560000e-06	-1.274673e-06	-7.762663e-10	-9.007135e+00	-5.079841e+01
1.570000e-06	-1.229694e-06	-7.746413e-10	-8.689303e+00	-5.032253e+01
1.580000e-06	-1.184661e-06	-7.694342e-10	-8.371093e+00	-4.983816e+01
1.590000e-06	-1.139551e-06	-7.640118e-10	-8.052329e+00	-4.934497e+01
1.600000e-06	-1.094304e-06	-7.577448e-10	-7.732607e+00	-4.884261e+01
1.610000e-06	-1.049012e-06	-7.493545e-10	-7.412562e+00	-4.833071e+01
1.620000e-06	-1.003706e-06	-7.358687e-10	-7.092419e+00	-4.780890e+01
1.630000e-06	-9.583401e-07	-7.221783e-10	-6.771854e+00	-4.727679e+01
1.640000e-06	-9.127900e-07	-7.125525e-10	-6.449987e+00	-4.673396e+01
1.650000e-06	-8.671696e-07	-7.054611e-10	-6.127622e+00	-4.617997e+01
1.660000e-06	-8.215293e-07	-6.986929e-10	-5.805117e+00	-4.561437e+01
1.670000e-06	-7.758952e-07	-6.937579e-10	-5.482656e+00	-4.503667e+01
1.680000e-06	-7.302340e-07	-6.891926e-10	-5.160003e+00	-4.444638e+01
1.690000e-06	-6.844389e-07	-6.823973e-10	-4.836404e+00	-4.384296e+01
1.700000e-06	-6.385653e-07	-6.709229e-10	-4.512251e+00	-4.322586e+01
1.710000e-06	-5.926413e-07	-6.595048e-10	-4.187741e+00	-4.259450e+01
1.720000e-06	-5.466914e-07	-6.484095e-10	-3.863049e+00	-4.194826e+01
1.730000e-06	-5.007573e-07	-6.375715e-10	-3.538467e+00	-4.128652e+01
1.740000e-06	-4.548017e-07	-6.262664e-10	-3.213734e+00	-4.060861e+01
1.750000e-06	-4.087693e-07	-6.165881e-10	-2.888459e+00	-3.991386e+01
1.760000e-06	-3.627633e-07	-6.093451e-10	-2.563370e+00	-3.920155e+01
1.770000e-06	-3.167410e-07	-5.982364e-10	-2.238165e+00	-3.847096e+01
1.780000e-06	-2.706368e-07	-5.857808e-10	-1.912383e+00	-3.772135e+01
1.790000e-06	-2.245697e-07	-5.756954e-10	-1.586861e+00	-3.695196e+01
1.800000e-06	-1.784916e-07	-5.659239e-10	-1.261263e+00	-3.616202e+01
1.810000e-06	-1.323507e-07	-5.524676e-10	-9.352206e-01	-3.535075e+01
1.820000e-06	-8.622357e-08	-5.367671e-10	-6.092758e-01	-3.451736e+01
1.830000e-06	-4.020850e-08	-5.204296e-10	-2.841226e-01	-3.366108e+01
1.840000e-06	5.743838e-09	-5.066337e-10	4.058730e-02	-3.278112e+01
1.850000e-06	5.173971e-08	-4.935458e-10	3.656048e-01	-3.187671e+01
1.860000e-06	9.777430e-08	-4.829454e-10	6.908959e-01	-3.094711e+01
1.870000e-06	1.438705e-07	-4.734224e-10	1.016623e+00	-2.999158e+01
1.880000e-06	1.900195e-07	-4.646012e-10	1.342722e+00	-2.900942e+01
1.890000e-06	2.362469e-07	-4.485934e-10	1.669375e+00	-2.799996e+01
1.900000e-06	2.823974e-07	-4.272558e-10	1.995486e+00	-2.696257e+01
1.910000e-06	3.283792e-07	-4.061452e-10	2.320404e+00	-2.589667e+01
1.920000e-06	3.743746e-07	-3.858822e-10	2.645418e+00	-2.480171e+01
1.930000e-06	4.203286e-07	-3.685745e-10	2.970140e+00	-2.367724e+01
1.940000e-06	4.662063e-07	-3.518268e-10	3.294322e+00	-2.252285e+01
1.950000e-06	5.120447e-07	-3.402603e-10	3.618227e+00	-2.133820e+01
1.960000e-06	5.577868e-07	-3.303183e-10	3.941451e+00	-2.012303e+01
1.970000e-06	6.034596e-07	-3.125469e-10	4.264186e+00	-1.887716e+01
1.980000e-06	6.491097e-07	-2.841498e-10	4.586760e+00	-1.760051e+01
1.990000e-06	6.946977e-07	-2.527389e-10	4.908895e+00	-1.629309e+01
2.000000e-06	7.402724e-07	-2.276680e-10	5.230936e+00	-1.495500e+01
2.010000e-06	7.858427e-07	-2.084229e-10	5.552947e+00	-1.358644e+01
2.020000e-06	8.313561e-07	-1.903741e-10	5.874555e+00	-1.218773e+01
2.030000e-06	8.767786e-07	-1.727465e-10	6.195521e+00	-1.075927e+01
2.040000e-06	9.221362e-07	-1.581921e-10	6.516029e+00	-9.301604e+00
2.050000e-06	9.674036e-07	-1.414895e-10	6.835899e+00	-7.815360e+00
2.060000e-06	1.012620e-06	-1.125440e-10	7.155405e+00	-6.301291e+00
2.070000e-06	1.057861e-06	-7.554949e-11	7.475088e+00	-4.760259e+00
2.080000e-06	1.103002e-06	-4.128945e-11	7.794066e+00	-3.193238e+00
2.090000e-06	1.148061e-06	-1.469746e-11	8.112466e+00	-1.601310e+00
2.100000e-06	1.193000e-06	7.044481e-12	8.430016e+00	1.433226e-02
2.110000e-06	1.237766e-06	2.725498e-11	8.746343e+00	1.652393e+00
2.120000e-06	1.282411e-06	4.511271e-11	9.061814e+00	3.311476e+00
2.130000e-06	1.327093e-06	6.264088e-11	9.377550e+00	4.990086e+00
2.140000e-06	1.371769e-06	8.719230e-11	9.693242e+00	6.686637e+00
2.150000e-06	1.416219e-06	1.201704e-10	1.000733e+01	8.399458e+00
2.160000e-06	1.460567e-06	1.538166e-10	1.032071e+01	1.012680e+01
2.170000e-06	1.504862e-06	1.832626e-10	1.063371e+01	1.186683e+01
2.180000e-06	1.549076e-06	2.073441e-10	1.094613e+01	1.361767e+01
2.190000e-06	1.593183e-06	2.290968e-10	1.125780e+01	1.537737e+01
2.200000e-06	1.637185e-06	2.490583e-10	1.156873e+01	1.714393e+01
2.210000e-06	1.681233e-06	2.707892e-10	1.187998e+01	1.891533e+01
2.220000e-06	1.725244e-06	2.978609e-10	1.219097e+01	2.068949e+01
2.230000e-06	1.769138e-06	3.306680e-10	1.250114e+01	2.246434e+01
2.240000e-06	1.812970e-06	3.642570e-10	1.281087e+01	2.423777e+01
2.250000e-06	1.856778e-06	3.952823e-10	1.312042e+01	2.600768e+01
2.260000e-06	1.900521e-06	4.235576e-10	1.342952e+01	2.777199e+01
2.270000e-06	1.944066e-06	4.491721e-10	1.373722e+01	2.952861e+01
2.280000e-06	1.987415e-06	4.738571e-10	1.404353e+01	3.127551e+01
2.290000e-06	2.030598e-06	4.988480e-10	1.434867e+01	3.301067e+01
2.300000e-06	2.073649e-06	5.230982e-10	1.465289e+01	3.473212e+01
2.310000e-06	2.116533e-06	5.470134e-10	1.495591e+01	3.643796e+01
2.320000e-06	2.159174e-06	5.734793e-10	1.525722e+01	3.812632e+01
2.330000e-06	2.201548e-06	6.012004e-10	1.555665e+01	3.979543e+01
2.340000e-06	2.243621e-06	6.266485e-10	1.585395e+01	4.144359e+01
2.350000e-06	2.285334e-06	6.512482e-10	1.614870e+01	4.306916e+01
2.360000e-06	2.326865e-06	6.763897e-10	1.644217e+01	4.467063e+01
2.370000e-06	2.368250e-06	7.034616e-10	1.673461e+01	4.624656e+01
2.380000e-06	2.409233e-06	7.310123e-10	1.702420e+01	4.779561e+01
2.390000e-06	2.449823e-06	7.558859e-10	1.731102e+01	4.931654e+01
2.400000e-06	2.490209e-06	7.772198e-10	1.759640e+01	5.080823e+01
2.410000e-06	2.530483e-06	7.960587e-10	1.788098e+01	5.226966e+01
2.420000e-06	2.570578e-06	8.177387e-10	1.816430e+01	5.369994e+01
2.430000e-06	2.610588e-06	8.421627e-10	1.844702e+01	5.509825e+01
2.440000e-06	2.650527e-06	8.662427e-10	1.872924e+01	5.646393e+01
2.450000e-06	2.690353e-06	8.891356e-10	1.901066e+01	5.779640e+01
2.460000e-06	2.730094e-06	9.116223e-10	1.929148e+01	5.909521e+01
2.470000e-06	2.769728e-06	9.313336e-10	1.957154e+01	6.036000e+01
2.480000e-06	2.809206e-06	9.477793e-10	1.985050e+01	6.159052e+01
2.490000e-06	2.848383e-06	9.602553e-10	2.012734e+01	6.278664e+01
2.500000e-06	2.887231e-06	9.750001e-10	2.040185e+01	6.394831e+01
2.510000e-06	2.925888e-06	9.972125e-10	2.067500e+01	6.507558e+01
2.520000e-06	2.964404e-06	1.023159e-09	2.094717e+01	6.616859e+01
2.530000e-06	3.002739e-06	1.045447e-09	2.121805e+01	6.722757e+01
2.540000e-06	3.040866e-06	1.061849e-09	2.148747e+01	6.825281e+01
2.550000e-06	3.078786e-06	1.075354e-09	2.175542e+01	6.924470e+01
2.560000e-06	3.116558e-06	1.087769e-09	2.202232e+01	7.020367e+01
2.570000e-06	3.154214e-06	1.097145e-09	2.228841e+01	7.113023e+01
2.580000e-06	3.191709e-06	1.104539e-09	2.255335e+01	7.202494e+01
2.590000e-06	3.228981e-06	1.117206e-09	2.281673e+01	7.288839e+01
2.600000e-06	3.265914e-06	1.136798e-09	2.307771e+01	7.372124e+01
2.610000e-06	3.302460e-06	1.155526e-09	2.333595e+01	7.452416e+01
2.620000e-06	3.338796e-06	1.168893e-09	2.359271e+01	7.529786e+01
2.630000e-06	3.375004e-06	1.178315e-09	2.384857e+01	7.604308e+01
2.640000e-06	3.411061e-06	1.187336e-09	2.410335e+01	7.676055e+01
2.650000e-06	3.446998e-06	1.195672e-09	2.435729e+01	7.745104e+01
2.660000e-06	3.482813e-06	1.198849e-09	2.461037e+01	7.811531e+01
2.670000e-06	3.518435e-06	1.202109e-09	2.486208e+01	7.875412e+01
2.680000e-06	3.553856e-06	1.210636e-09	2.511237e+01	7.936823e+01
2.690000e-06	3.589059e-06	1.224231e-09	2.536112e+01	7.995840e+01
2.700000e-06	3.623793e-06	1.237180e-09	2.560656e+01	8.052537e+01
2.710000e-06	3.658004e-06	1.246672e-09	2.584831e+01	8.106986e+01
2.720000e-06	3.691896e-06	1.255147e-09	2.608780e+01	8.159258e+01
2.730000e-06	3.725489e-06	1.264896e-09	2.632517e+01	8.209422e+01
2.740000e-06	3.758589e-06	1.271274e-09	2.655906e+01	8.257545e+01
2.750000e-06	3.791279e-06	1.274163e-09	2.679006e+01	8.303691e+01
2.760000e-06	3.823744e-06	1.278556e-09	2.701947e+01	8.347923e+01
2.770000e-06	3.855912e-06	1.286301e-09	2.724677e+01	8.390301e+01
2.780000e-06	3.887827e-06	1.294609e-09	2.747229e+01	8.430881e+01
2.790000e-06	3.919597e-06	1.299860e-09	2.769679e+01	8.469718e+01
2.800000e-06	3.951218e-06	1.301496e-09	2.792022e+01	8.506867e+01
2.810000e-06	3.982686e-06	1.303520e-09	2.814259e+01	8.542376e+01
2.820000e-06	4.013933e-06	1.307399e-09	2.836339e+01	8.576294e+01
2.830000e-06	4.044826e-06	1.310683e-09	2.858168e+01	8.608667e+01
2.840000e-06	4.075451e-06	1.313590e-09	2.879809e+01	8.639541e+01
2.850000e-06	4.105753e-06	1.318679e-09	2.901220e+01	8.668958e+01
2.860000e-06	4.135758e-06	1.324882e-09	2.922423e+01	8.696960e+01
2.870000e-06	4.165544e-06	1.328816e-09	2.943470e+01	8.723587e+01
2.880000e-06	4.195065e-06	1.330336e-09	2.964330e+01	8.748878e+01
2.890000e-06	4.224346e-06	1.329607e-09	2.985021e+01	8.772873e+01
2.900000e-06	4.253278e-06	1.330704e-09	3.005465e+01	8.795609e+01
