# Temperatura_=_15.4
# Concentracion g/m^3_=_4090.0
# C_Vs_to_Am_M_A/Vsm_=_65563218390.804596
# pendiente_HvsI_1/m_=_3716.3
# ordenada_HvsI_A/m_=_1297.0
# frecuencia_Hz_=_135084.57731867975

Tiempo_(s)	Campo_(V.s)	Magnetizacion_(V.s)	Campo_(kA/m)	Magnetizacion_(A/m)
0.000000e+00	-5.441155e-06	-1.292496e-09	-3.839139e+01	-8.573998e+01
1.000000e-08	-5.441271e-06	-1.295431e-09	-3.839221e+01	-8.562073e+01
2.000000e-08	-5.441190e-06	-1.297248e-09	-3.839164e+01	-8.550740e+01
3.000000e-08	-5.440821e-06	-1.295426e-09	-3.838904e+01	-8.540057e+01
4.000000e-08	-5.440067e-06	-1.293591e-09	-3.838372e+01	-8.530075e+01
5.000000e-08	-5.438876e-06	-1.291778e-09	-3.837532e+01	-8.520840e+01
6.000000e-08	-5.437048e-06	-1.286990e-09	-3.836242e+01	-8.512392e+01
7.000000e-08	-5.434534e-06	-1.282462e-09	-3.834468e+01	-8.504764e+01
8.000000e-08	-5.431476e-06	-1.301012e-09	-3.832310e+01	-8.497978e+01
9.000000e-08	-5.427837e-06	-1.314103e-09	-3.829743e+01	-8.492053e+01
1.000000e-07	-5.423762e-06	-1.291718e-09	-3.826867e+01	-8.486996e+01
1.100000e-07	-5.419481e-06	-1.282198e-09	-3.823847e+01	-8.482809e+01
1.200000e-07	-5.415147e-06	-1.333589e-09	-3.820789e+01	-8.479483e+01
1.300000e-07	-5.410559e-06	-1.294623e-09	-3.817552e+01	-8.477001e+01
1.400000e-07	-5.405365e-06	-1.272424e-09	-3.813887e+01	-8.475339e+01
1.500000e-07	-5.399753e-06	-1.251359e-09	-3.809928e+01	-8.474464e+01
1.600000e-07	-5.394025e-06	-1.330356e-09	-3.805886e+01	-8.474334e+01
1.700000e-07	-5.387889e-06	-1.277541e-09	-3.801556e+01	-8.474901e+01
1.800000e-07	-5.381114e-06	-1.209497e-09	-3.796776e+01	-8.476108e+01
1.900000e-07	-5.373938e-06	-1.260092e-09	-3.791713e+01	-8.477893e+01
2.000000e-07	-5.366597e-06	-1.334140e-09	-3.786534e+01	-8.480187e+01
2.100000e-07	-5.359067e-06	-1.294106e-09	-3.781220e+01	-8.482913e+01
2.200000e-07	-5.351250e-06	-1.216767e-09	-3.775705e+01	-8.485992e+01
2.300000e-07	-5.343223e-06	-1.323321e-09	-3.770041e+01	-8.489339e+01
2.400000e-07	-5.334916e-06	-1.376530e-09	-3.764180e+01	-8.492865e+01
2.500000e-07	-5.325925e-06	-1.338001e-09	-3.757836e+01	-8.496480e+01
2.600000e-07	-5.316168e-06	-1.310696e-09	-3.750952e+01	-8.500089e+01
2.700000e-07	-5.305937e-06	-1.425881e-09	-3.743733e+01	-8.503597e+01
2.800000e-07	-5.295058e-06	-1.403073e-09	-3.736057e+01	-8.506910e+01
2.900000e-07	-5.283637e-06	-1.306777e-09	-3.727998e+01	-8.509932e+01
3.000000e-07	-5.271908e-06	-1.300249e-09	-3.719723e+01	-8.512569e+01
3.100000e-07	-5.259822e-06	-1.389839e-09	-3.711195e+01	-8.514729e+01
3.200000e-07	-5.247256e-06	-1.336893e-09	-3.702329e+01	-8.516324e+01
3.300000e-07	-5.234298e-06	-1.306971e-09	-3.693186e+01	-8.517268e+01
3.400000e-07	-5.220998e-06	-1.361763e-09	-3.683802e+01	-8.517480e+01
3.500000e-07	-5.207203e-06	-1.392452e-09	-3.674069e+01	-8.516884e+01
3.600000e-07	-5.193132e-06	-1.328165e-09	-3.664141e+01	-8.515409e+01
3.700000e-07	-5.178701e-06	-1.337087e-09	-3.653959e+01	-8.512991e+01
3.800000e-07	-5.163608e-06	-1.333479e-09	-3.643309e+01	-8.509573e+01
3.900000e-07	-5.147832e-06	-1.288663e-09	-3.632178e+01	-8.505105e+01
4.000000e-07	-5.131452e-06	-1.296156e-09	-3.620621e+01	-8.499543e+01
4.100000e-07	-5.114754e-06	-1.348791e-09	-3.608840e+01	-8.492855e+01
4.200000e-07	-5.097753e-06	-1.320977e-09	-3.596843e+01	-8.485013e+01
4.300000e-07	-5.080419e-06	-1.295933e-09	-3.584614e+01	-8.475999e+01
4.400000e-07	-5.062905e-06	-1.353255e-09	-3.572256e+01	-8.465803e+01
4.500000e-07	-5.045072e-06	-1.348278e-09	-3.559674e+01	-8.454424e+01
4.600000e-07	-5.026888e-06	-1.295598e-09	-3.546843e+01	-8.441868e+01
4.700000e-07	-5.008358e-06	-1.284642e-09	-3.533769e+01	-8.428152e+01
4.800000e-07	-4.989346e-06	-1.310122e-09	-3.520355e+01	-8.413298e+01
4.900000e-07	-4.969921e-06	-1.288610e-09	-3.506649e+01	-8.397335e+01
5.000000e-07	-4.950323e-06	-1.291704e-09	-3.492821e+01	-8.380303e+01
5.100000e-07	-4.930523e-06	-1.281287e-09	-3.478851e+01	-8.362244e+01
5.200000e-07	-4.910491e-06	-1.283358e-09	-3.464717e+01	-8.343209e+01
5.300000e-07	-4.890215e-06	-1.291713e-09	-3.450410e+01	-8.323255e+01
5.400000e-07	-4.869609e-06	-1.309198e-09	-3.435871e+01	-8.302441e+01
5.500000e-07	-4.848666e-06	-1.272492e-09	-3.421094e+01	-8.280835e+01
5.600000e-07	-4.827334e-06	-1.276782e-09	-3.406043e+01	-8.258503e+01
5.700000e-07	-4.805641e-06	-1.290284e-09	-3.390737e+01	-8.235519e+01
5.800000e-07	-4.783718e-06	-1.284345e-09	-3.375269e+01	-8.211955e+01
5.900000e-07	-4.761514e-06	-1.256120e-09	-3.359602e+01	-8.187889e+01
6.000000e-07	-4.738963e-06	-1.260967e-09	-3.343690e+01	-8.163395e+01
6.100000e-07	-4.715935e-06	-1.259449e-09	-3.327443e+01	-8.138549e+01
6.200000e-07	-4.692505e-06	-1.267867e-09	-3.310911e+01	-8.113428e+01
6.300000e-07	-4.668800e-06	-1.263263e-09	-3.294185e+01	-8.088104e+01
6.400000e-07	-4.644919e-06	-1.256962e-09	-3.277336e+01	-8.062650e+01
6.500000e-07	-4.620888e-06	-1.260550e-09	-3.260380e+01	-8.037133e+01
6.600000e-07	-4.596625e-06	-1.277068e-09	-3.243261e+01	-8.011620e+01
6.700000e-07	-4.572000e-06	-1.262659e-09	-3.225886e+01	-7.986172e+01
6.800000e-07	-4.546910e-06	-1.241462e-09	-3.208183e+01	-7.960846e+01
6.900000e-07	-4.521386e-06	-1.237374e-09	-3.190174e+01	-7.935694e+01
7.000000e-07	-4.495307e-06	-1.237363e-09	-3.171773e+01	-7.910762e+01
7.100000e-07	-4.468634e-06	-1.230833e-09	-3.152954e+01	-7.886092e+01
7.200000e-07	-4.441472e-06	-1.226043e-09	-3.133788e+01	-7.861718e+01
7.300000e-07	-4.414005e-06	-1.231536e-09	-3.114409e+01	-7.837670e+01
7.400000e-07	-4.386309e-06	-1.239331e-09	-3.094867e+01	-7.813971e+01
7.500000e-07	-4.358431e-06	-1.244239e-09	-3.075197e+01	-7.790638e+01
7.600000e-07	-4.330436e-06	-1.227913e-09	-3.055445e+01	-7.767680e+01
7.700000e-07	-4.302204e-06	-1.218281e-09	-3.035525e+01	-7.745102e+01
7.800000e-07	-4.273649e-06	-1.210156e-09	-3.015377e+01	-7.722903e+01
7.900000e-07	-4.244793e-06	-1.205381e-09	-2.995017e+01	-7.701074e+01
8.000000e-07	-4.215584e-06	-1.192538e-09	-2.974408e+01	-7.679604e+01
8.100000e-07	-4.186106e-06	-1.195333e-09	-2.953609e+01	-7.658472e+01
8.200000e-07	-4.156381e-06	-1.197464e-09	-2.932636e+01	-7.637657e+01
8.300000e-07	-4.126401e-06	-1.204129e-09	-2.911483e+01	-7.617131e+01
8.400000e-07	-4.096206e-06	-1.198066e-09	-2.890178e+01	-7.596861e+01
8.500000e-07	-4.065671e-06	-1.190894e-09	-2.868633e+01	-7.576813e+01
8.600000e-07	-4.034785e-06	-1.178707e-09	-2.846841e+01	-7.556950e+01
8.700000e-07	-4.003621e-06	-1.177327e-09	-2.824853e+01	-7.537229e+01
8.800000e-07	-3.972175e-06	-1.168524e-09	-2.802665e+01	-7.517609e+01
8.900000e-07	-3.940554e-06	-1.162256e-09	-2.780354e+01	-7.498045e+01
9.000000e-07	-3.908803e-06	-1.153909e-09	-2.757951e+01	-7.478494e+01
9.100000e-07	-3.876900e-06	-1.155963e-09	-2.735441e+01	-7.458909e+01
9.200000e-07	-3.844780e-06	-1.155086e-09	-2.712778e+01	-7.439245e+01
9.300000e-07	-3.812446e-06	-1.154053e-09	-2.689964e+01	-7.419459e+01
9.400000e-07	-3.779896e-06	-1.150245e-09	-2.666998e+01	-7.399508e+01
9.500000e-07	-3.746958e-06	-1.148991e-09	-2.643758e+01	-7.379350e+01
9.600000e-07	-3.713508e-06	-1.145161e-09	-2.620156e+01	-7.358945e+01
9.700000e-07	-3.679582e-06	-1.135343e-09	-2.596218e+01	-7.338258e+01
9.800000e-07	-3.645222e-06	-1.121579e-09	-2.571975e+01	-7.317254e+01
9.900000e-07	-3.610430e-06	-1.112397e-09	-2.547427e+01	-7.295901e+01
1.000000e-06	-3.575324e-06	-1.110785e-09	-2.522657e+01	-7.274173e+01
1.010000e-06	-3.539954e-06	-1.110891e-09	-2.497701e+01	-7.252044e+01
1.020000e-06	-3.504374e-06	-1.112274e-09	-2.472596e+01	-7.229495e+01
1.030000e-06	-3.468617e-06	-1.112618e-09	-2.447367e+01	-7.206510e+01
1.040000e-06	-3.432711e-06	-1.113784e-09	-2.422033e+01	-7.183073e+01
1.050000e-06	-3.396711e-06	-1.109404e-09	-2.396633e+01	-7.159178e+01
1.060000e-06	-3.360559e-06	-1.101010e-09	-2.371124e+01	-7.134818e+01
1.070000e-06	-3.324070e-06	-1.086064e-09	-2.345379e+01	-7.109991e+01
1.080000e-06	-3.287219e-06	-1.075384e-09	-2.319377e+01	-7.084699e+01
1.090000e-06	-3.250237e-06	-1.070197e-09	-2.293284e+01	-7.058946e+01
1.100000e-06	-3.213074e-06	-1.073158e-09	-2.267063e+01	-7.032741e+01
1.110000e-06	-3.175683e-06	-1.072591e-09	-2.240680e+01	-7.006094e+01
1.120000e-06	-3.138114e-06	-1.074700e-09	-2.214173e+01	-6.979018e+01
1.130000e-06	-3.100294e-06	-1.072385e-09	-2.187488e+01	-6.951527e+01
1.140000e-06	-3.062285e-06	-1.066633e-09	-2.160670e+01	-6.923640e+01
1.150000e-06	-3.024100e-06	-1.053338e-09	-2.133727e+01	-6.895373e+01
1.160000e-06	-2.985688e-06	-1.043436e-09	-2.106625e+01	-6.866746e+01
1.170000e-06	-2.947062e-06	-1.036542e-09	-2.079371e+01	-6.837779e+01
1.180000e-06	-2.908159e-06	-1.035445e-09	-2.051922e+01	-6.808492e+01
1.190000e-06	-2.869019e-06	-1.030089e-09	-2.024306e+01	-6.778904e+01
1.200000e-06	-2.829612e-06	-1.027225e-09	-1.996502e+01	-6.749035e+01
1.210000e-06	-2.789976e-06	-1.028895e-09	-1.968535e+01	-6.718903e+01
1.220000e-06	-2.750243e-06	-1.030309e-09	-1.940501e+01	-6.688526e+01
1.230000e-06	-2.710448e-06	-1.024041e-09	-1.912423e+01	-6.657919e+01
1.240000e-06	-2.670595e-06	-1.014946e-09	-1.884304e+01	-6.627095e+01
1.250000e-06	-2.630666e-06	-1.007287e-09	-1.856130e+01	-6.596066e+01
1.260000e-06	-2.590641e-06	-1.003937e-09	-1.827890e+01	-6.564842e+01
1.270000e-06	-2.550482e-06	-1.001526e-09	-1.799554e+01	-6.533428e+01
1.280000e-06	-2.510175e-06	-9.953536e-10	-1.771115e+01	-6.501830e+01
1.290000e-06	-2.469710e-06	-9.895557e-10	-1.742564e+01	-6.470047e+01
1.300000e-06	-2.429068e-06	-9.853905e-10	-1.713888e+01	-6.438078e+01
1.310000e-06	-2.388155e-06	-9.804575e-10	-1.685021e+01	-6.405919e+01
1.320000e-06	-2.347016e-06	-9.738817e-10	-1.655995e+01	-6.373560e+01
1.330000e-06	-2.305649e-06	-9.708537e-10	-1.626807e+01	-6.340992e+01
1.340000e-06	-2.263850e-06	-9.717576e-10	-1.597315e+01	-6.308200e+01
1.350000e-06	-2.221583e-06	-9.732737e-10	-1.567492e+01	-6.275167e+01
1.360000e-06	-2.179026e-06	-9.668804e-10	-1.537465e+01	-6.241875e+01
1.370000e-06	-2.136291e-06	-9.546603e-10	-1.507312e+01	-6.208300e+01
1.380000e-06	-2.093285e-06	-9.428509e-10	-1.476968e+01	-6.174418e+01
1.390000e-06	-2.050049e-06	-9.356169e-10	-1.446462e+01	-6.140204e+01
1.400000e-06	-2.006639e-06	-9.289830e-10	-1.415833e+01	-6.105627e+01
1.410000e-06	-1.963070e-06	-9.242449e-10	-1.385092e+01	-6.070657e+01
1.420000e-06	-1.919431e-06	-9.214020e-10	-1.354301e+01	-6.035263e+01
1.430000e-06	-1.875755e-06	-9.216916e-10	-1.323484e+01	-5.999410e+01
1.440000e-06	-1.832033e-06	-9.176174e-10	-1.292636e+01	-5.963065e+01
1.450000e-06	-1.788228e-06	-9.081734e-10	-1.261728e+01	-5.926192e+01
1.460000e-06	-1.744363e-06	-8.963981e-10	-1.230778e+01	-5.888754e+01
1.470000e-06	-1.700439e-06	-8.880256e-10	-1.199786e+01	-5.850716e+01
1.480000e-06	-1.656375e-06	-8.811989e-10	-1.168696e+01	-5.812042e+01
1.490000e-06	-1.612155e-06	-8.752938e-10	-1.137495e+01	-5.772694e+01
1.500000e-06	-1.567902e-06	-8.688037e-10	-1.106272e+01	-5.732636e+01
1.510000e-06	-1.523571e-06	-8.658548e-10	-1.074993e+01	-5.691832e+01
1.520000e-06	-1.479116e-06	-8.610132e-10	-1.043626e+01	-5.650247e+01
1.530000e-06	-1.434647e-06	-8.485750e-10	-1.012250e+01	-5.607845e+01
1.540000e-06	-1.390077e-06	-8.318261e-10	-9.808024e+00	-5.564591e+01
1.550000e-06	-1.345346e-06	-8.173396e-10	-9.492416e+00	-5.520452e+01
1.560000e-06	-1.300593e-06	-8.071207e-10	-9.176654e+00	-5.475394e+01
1.570000e-06	-1.255706e-06	-8.006609e-10	-8.859937e+00	-5.429385e+01
1.580000e-06	-1.210681e-06	-7.955482e-10	-8.542253e+00	-5.382390e+01
1.590000e-06	-1.165584e-06	-7.921945e-10	-8.224062e+00	-5.334380e+01
1.600000e-06	-1.120395e-06	-7.875372e-10	-7.905217e+00	-5.285320e+01
1.610000e-06	-1.075095e-06	-7.754311e-10	-7.585595e+00	-5.235181e+01
1.620000e-06	-1.029715e-06	-7.595202e-10	-7.265404e+00	-5.183929e+01
1.630000e-06	-9.843067e-07	-7.471918e-10	-6.945015e+00	-5.131534e+01
1.640000e-06	-9.387848e-07	-7.390211e-10	-6.623825e+00	-5.077961e+01
1.650000e-06	-8.932155e-07	-7.325025e-10	-6.302299e+00	-5.023178e+01
1.660000e-06	-8.475872e-07	-7.251579e-10	-5.980358e+00	-4.967151e+01
1.670000e-06	-8.018717e-07	-7.202772e-10	-5.657801e+00	-4.909844e+01
1.680000e-06	-7.560997e-07	-7.195302e-10	-5.334846e+00	-4.851221e+01
1.690000e-06	-7.102497e-07	-7.131674e-10	-5.011340e+00	-4.791243e+01
1.700000e-06	-6.643867e-07	-6.980223e-10	-4.687742e+00	-4.729871e+01
1.710000e-06	-6.185981e-07	-6.819800e-10	-4.364669e+00	-4.667061e+01
1.720000e-06	-5.728179e-07	-6.732758e-10	-4.041656e+00	-4.602771e+01
1.730000e-06	-5.269384e-07	-6.681460e-10	-3.717942e+00	-4.536954e+01
1.740000e-06	-4.809818e-07	-6.609519e-10	-3.393685e+00	-4.469561e+01
1.750000e-06	-4.349632e-07	-6.503342e-10	-3.068989e+00	-4.400541e+01
1.760000e-06	-3.889127e-07	-6.412928e-10	-2.744068e+00	-4.329839e+01
1.770000e-06	-3.429469e-07	-6.317503e-10	-2.419745e+00	-4.257401e+01
1.780000e-06	-2.969426e-07	-6.190713e-10	-2.095151e+00	-4.183167e+01
1.790000e-06	-2.508068e-07	-6.037911e-10	-1.769628e+00	-4.107077e+01
1.800000e-06	-2.047158e-07	-5.924081e-10	-1.444422e+00	-4.029067e+01
1.810000e-06	-1.586678e-07	-5.820356e-10	-1.119519e+00	-3.949071e+01
1.820000e-06	-1.126306e-07	-5.702200e-10	-7.946923e-01	-3.867025e+01
1.830000e-06	-6.659623e-08	-5.568802e-10	-4.698859e-01	-3.782858e+01
1.840000e-06	-2.057300e-08	-5.431004e-10	-1.451578e-01	-3.696501e+01
1.850000e-06	2.541783e-08	-5.316743e-10	1.793417e-01	-3.607885e+01
1.860000e-06	7.144506e-08	-5.220895e-10	5.040980e-01	-3.516939e+01
1.870000e-06	1.174418e-07	-5.108503e-10	8.286394e-01	-3.423593e+01
1.880000e-06	1.634274e-07	-4.983015e-10	1.153102e+00	-3.327776e+01
1.890000e-06	2.094580e-07	-4.838802e-10	1.477882e+00	-3.229423e+01
1.900000e-06	2.554319e-07	-4.648163e-10	1.802262e+00	-3.128465e+01
1.910000e-06	3.013858e-07	-4.430822e-10	2.126501e+00	-3.024839e+01
1.920000e-06	3.473817e-07	-4.229553e-10	2.451036e+00	-2.918486e+01
1.930000e-06	3.934243e-07	-4.074223e-10	2.775901e+00	-2.809348e+01
1.940000e-06	4.394954e-07	-3.946239e-10	3.100966e+00	-2.697373e+01
1.950000e-06	4.854416e-07	-3.800706e-10	3.425151e+00	-2.582514e+01
1.960000e-06	5.312552e-07	-3.642092e-10	3.748400e+00	-2.464731e+01
1.970000e-06	5.770591e-07	-3.469207e-10	4.071581e+00	-2.343989e+01
1.980000e-06	6.228019e-07	-3.248944e-10	4.394330e+00	-2.220261e+01
1.990000e-06	6.686075e-07	-2.990344e-10	4.717523e+00	-2.093528e+01
2.000000e-06	7.144100e-07	-2.731005e-10	5.040694e+00	-1.963779e+01
2.010000e-06	7.600578e-07	-2.529347e-10	5.362773e+00	-1.831011e+01
2.020000e-06	8.056443e-07	-2.351076e-10	5.684420e+00	-1.695233e+01
2.030000e-06	8.512033e-07	-2.156706e-10	6.005872e+00	-1.556462e+01
2.040000e-06	8.967498e-07	-1.939334e-10	6.327237e+00	-1.414726e+01
2.050000e-06	9.421521e-07	-1.705490e-10	6.647584e+00	-1.270063e+01
2.060000e-06	9.874437e-07	-1.484313e-10	6.967150e+00	-1.122525e+01
2.070000e-06	1.032775e-06	-1.258192e-10	7.286995e+00	-9.721702e+00
2.080000e-06	1.078003e-06	-1.022283e-10	7.606116e+00	-8.190726e+00
2.090000e-06	1.123063e-06	-7.966171e-11	7.924043e+00	-6.633154e+00
2.100000e-06	1.168074e-06	-5.826347e-11	8.241631e+00	-5.049938e+00
2.110000e-06	1.212987e-06	-3.309128e-11	8.558524e+00	-3.442140e+00
2.120000e-06	1.257672e-06	-3.353367e-12	8.873811e+00	-1.810936e+00
2.130000e-06	1.302294e-06	2.581973e-11	9.188652e+00	-1.576075e-01
2.140000e-06	1.346892e-06	5.224574e-11	9.503322e+00	1.516458e+00
2.150000e-06	1.391427e-06	7.624899e-11	9.817551e+00	3.209772e+00
2.160000e-06	1.435966e-06	9.684913e-11	1.013181e+01	4.920752e+00
2.170000e-06	1.480385e-06	1.162872e-10	1.044522e+01	6.647726e+00
2.180000e-06	1.524663e-06	1.369218e-10	1.075763e+01	8.388939e+00
2.190000e-06	1.568888e-06	1.619667e-10	1.106967e+01	1.014256e+01
2.200000e-06	1.613050e-06	1.934612e-10	1.138126e+01	1.190669e+01
2.210000e-06	1.657139e-06	2.294200e-10	1.169234e+01	1.367937e+01
2.220000e-06	1.701167e-06	2.661969e-10	1.200300e+01	1.545859e+01
2.230000e-06	1.745095e-06	3.003389e-10	1.231294e+01	1.724231e+01
2.240000e-06	1.788950e-06	3.290373e-10	1.262237e+01	1.902843e+01
2.250000e-06	1.832772e-06	3.499246e-10	1.293157e+01	2.081487e+01
2.260000e-06	1.876599e-06	3.675746e-10	1.324080e+01	2.259949e+01
2.270000e-06	1.920357e-06	3.887350e-10	1.354955e+01	2.438018e+01
2.280000e-06	1.964013e-06	4.171873e-10	1.385758e+01	2.615484e+01
2.290000e-06	2.007527e-06	4.514349e-10	1.416460e+01	2.792137e+01
2.300000e-06	2.050845e-06	4.881442e-10	1.447023e+01	2.967771e+01
2.310000e-06	2.093955e-06	5.199911e-10	1.477441e+01	3.142184e+01
2.320000e-06	2.136762e-06	5.459723e-10	1.507644e+01	3.315177e+01
2.330000e-06	2.179195e-06	5.666630e-10	1.537584e+01	3.486558e+01
2.340000e-06	2.221369e-06	5.845255e-10	1.567341e+01	3.656142e+01
2.350000e-06	2.263415e-06	6.022622e-10	1.597007e+01	3.823751e+01
2.360000e-06	2.305193e-06	6.268318e-10	1.626485e+01	3.989214e+01
2.370000e-06	2.346608e-06	6.594412e-10	1.655707e+01	4.152369e+01
2.380000e-06	2.387633e-06	6.926696e-10	1.684653e+01	4.313064e+01
2.390000e-06	2.428305e-06	7.203734e-10	1.713350e+01	4.471156e+01
2.400000e-06	2.468803e-06	7.413717e-10	1.741924e+01	4.626513e+01
2.410000e-06	2.509186e-06	7.599919e-10	1.770417e+01	4.779014e+01
2.420000e-06	2.549475e-06	7.808794e-10	1.798844e+01	4.928548e+01
2.430000e-06	2.589624e-06	8.051965e-10	1.827172e+01	5.075015e+01
2.440000e-06	2.629640e-06	8.297917e-10	1.855407e+01	5.218328e+01
2.450000e-06	2.669583e-06	8.529106e-10	1.883589e+01	5.358409e+01
2.460000e-06	2.709455e-06	8.753381e-10	1.911722e+01	5.495194e+01
2.470000e-06	2.749251e-06	8.951014e-10	1.939801e+01	5.628628e+01
2.480000e-06	2.788866e-06	9.108388e-10	1.967752e+01	5.758667e+01
2.490000e-06	2.828343e-06	9.265879e-10	1.995606e+01	5.885280e+01
2.500000e-06	2.867611e-06	9.441810e-10	2.023312e+01	6.008446e+01
2.510000e-06	2.906586e-06	9.646724e-10	2.050813e+01	6.128151e+01
2.520000e-06	2.945315e-06	9.887307e-10	2.078139e+01	6.244395e+01
2.530000e-06	2.983860e-06	1.013641e-09	2.105335e+01	6.357184e+01
2.540000e-06	3.022208e-06	1.033949e-09	2.132392e+01	6.466534e+01
2.550000e-06	3.060283e-06	1.046136e-09	2.159257e+01	6.572469e+01
2.560000e-06	3.098166e-06	1.053704e-09	2.185987e+01	6.675020e+01
2.570000e-06	3.135891e-06	1.062209e-09	2.212604e+01	6.774226e+01
2.580000e-06	3.173476e-06	1.072850e-09	2.239123e+01	6.870131e+01
2.590000e-06	3.210918e-06	1.088328e-09	2.265541e+01	6.962784e+01
2.600000e-06	3.248100e-06	1.108651e-09	2.291776e+01	7.052241e+01
2.610000e-06	3.284956e-06	1.131070e-09	2.317781e+01	7.138559e+01
2.620000e-06	3.321564e-06	1.149512e-09	2.343610e+01	7.221803e+01
2.630000e-06	3.358016e-06	1.160412e-09	2.369330e+01	7.302036e+01
2.640000e-06	3.394336e-06	1.163161e-09	2.394956e+01	7.379327e+01
2.650000e-06	3.430413e-06	1.163369e-09	2.420412e+01	7.453745e+01
2.660000e-06	3.466279e-06	1.167240e-09	2.445718e+01	7.525361e+01
2.670000e-06	3.502069e-06	1.176152e-09	2.470970e+01	7.594246e+01
2.680000e-06	3.537697e-06	1.185682e-09	2.496108e+01	7.660471e+01
2.690000e-06	3.573069e-06	1.196330e-09	2.521066e+01	7.724107e+01
2.700000e-06	3.608223e-06	1.212686e-09	2.545870e+01	7.785225e+01
2.710000e-06	3.643059e-06	1.227836e-09	2.570449e+01	7.843895e+01
2.720000e-06	3.677413e-06	1.235726e-09	2.594688e+01	7.900185e+01
2.730000e-06	3.711340e-06	1.240726e-09	2.618626e+01	7.954162e+01
2.740000e-06	3.744768e-06	1.246458e-09	2.642213e+01	8.005890e+01
2.750000e-06	3.777660e-06	1.251773e-09	2.665420e+01	8.055434e+01
2.760000e-06	3.810220e-06	1.256052e-09	2.688394e+01	8.102856e+01
2.770000e-06	3.842535e-06	1.259434e-09	2.711194e+01	8.148214e+01
2.780000e-06	3.874640e-06	1.267836e-09	2.733847e+01	8.191566e+01
2.790000e-06	3.906557e-06	1.279541e-09	2.756367e+01	8.232970e+01
2.800000e-06	3.938312e-06	1.287384e-09	2.778772e+01	8.272478e+01
2.810000e-06	3.969946e-06	1.289952e-09	2.801092e+01	8.310144e+01
2.820000e-06	4.001307e-06	1.291463e-09	2.823220e+01	8.346018e+01
2.830000e-06	4.032350e-06	1.297373e-09	2.845123e+01	8.380151e+01
2.840000e-06	4.063161e-06	1.305099e-09	2.866862e+01	8.412591e+01
2.850000e-06	4.093645e-06	1.308147e-09	2.888371e+01	8.443387e+01
2.860000e-06	4.123840e-06	1.309346e-09	2.909676e+01	8.472584e+01
2.870000e-06	4.153802e-06	1.314097e-09	2.930816e+01	8.500229e+01
2.880000e-06	4.183481e-06	1.321372e-09	2.951757e+01	8.526370e+01
2.890000e-06	4.212933e-06	1.323748e-09	2.972538e+01	8.551052e+01
2.900000e-06	4.242090e-06	1.322413e-09	2.993110e+01	8.574322e+01
