# Temperatura_=_-4.63
# Concentracion g/m^3_=_4090.0
# C_Vs_to_Am_M_A/Vsm_=_65563218390.804596
# pendiente_HvsI_1/m_=_3716.3
# ordenada_HvsI_A/m_=_1297.0
# frecuencia_Hz_=_135075.66140415118

Tiempo_(s)	Campo_(V.s)	Magnetizacion_(V.s)	Campo_(kA/m)	Magnetizacion_(A/m)
0.000000e+00	-5.425264e-06	-1.452485e-09	-3.839764e+01	-9.878715e+01
1.000000e-08	-5.425315e-06	-1.455733e-09	-3.839800e+01	-9.872444e+01
2.000000e-08	-5.425230e-06	-1.456689e-09	-3.839740e+01	-9.866597e+01
3.000000e-08	-5.424766e-06	-1.455421e-09	-3.839411e+01	-9.861223e+01
4.000000e-08	-5.423751e-06	-1.453288e-09	-3.838693e+01	-9.856366e+01
5.000000e-08	-5.422174e-06	-1.454024e-09	-3.837577e+01	-9.852063e+01
6.000000e-08	-5.420023e-06	-1.463882e-09	-3.836055e+01	-9.848347e+01
7.000000e-08	-5.417238e-06	-1.465839e-09	-3.834083e+01	-9.845240e+01
8.000000e-08	-5.413820e-06	-1.438266e-09	-3.831665e+01	-9.842759e+01
9.000000e-08	-5.409902e-06	-1.396681e-09	-3.828891e+01	-9.840914e+01
1.000000e-07	-5.405655e-06	-1.417212e-09	-3.825886e+01	-9.839705e+01
1.100000e-07	-5.401266e-06	-1.469567e-09	-3.822779e+01	-9.839127e+01
1.200000e-07	-5.396686e-06	-1.482445e-09	-3.819538e+01	-9.839164e+01
1.300000e-07	-5.391733e-06	-1.419520e-09	-3.816032e+01	-9.839795e+01
1.400000e-07	-5.386377e-06	-1.431765e-09	-3.812241e+01	-9.840989e+01
1.500000e-07	-5.380662e-06	-1.497161e-09	-3.808197e+01	-9.842709e+01
1.600000e-07	-5.374661e-06	-1.510343e-09	-3.803949e+01	-9.844910e+01
1.700000e-07	-5.368177e-06	-1.394378e-09	-3.799360e+01	-9.847542e+01
1.800000e-07	-5.361221e-06	-1.375111e-09	-3.794437e+01	-9.850546e+01
1.900000e-07	-5.354004e-06	-1.442791e-09	-3.789330e+01	-9.853857e+01
2.000000e-07	-5.346618e-06	-1.491322e-09	-3.784102e+01	-9.857408e+01
2.100000e-07	-5.338951e-06	-1.440486e-09	-3.778676e+01	-9.861124e+01
2.200000e-07	-5.330978e-06	-1.462171e-09	-3.773033e+01	-9.864927e+01
2.300000e-07	-5.322796e-06	-1.530511e-09	-3.767242e+01	-9.868734e+01
2.400000e-07	-5.314205e-06	-1.534695e-09	-3.761161e+01	-9.872462e+01
2.500000e-07	-5.304918e-06	-1.508610e-09	-3.754589e+01	-9.876023e+01
2.600000e-07	-5.294956e-06	-1.533488e-09	-3.747538e+01	-9.879330e+01
2.700000e-07	-5.284428e-06	-1.564378e-09	-3.740087e+01	-9.882295e+01
2.800000e-07	-5.273342e-06	-1.512498e-09	-3.732240e+01	-9.884829e+01
2.900000e-07	-5.261790e-06	-1.486195e-09	-3.724064e+01	-9.886845e+01
3.000000e-07	-5.249848e-06	-1.515975e-09	-3.715612e+01	-9.888258e+01
3.100000e-07	-5.237549e-06	-1.536618e-09	-3.706908e+01	-9.888985e+01
3.200000e-07	-5.224797e-06	-1.484244e-09	-3.697883e+01	-9.888946e+01
3.300000e-07	-5.211658e-06	-1.503959e-09	-3.688583e+01	-9.888067e+01
3.400000e-07	-5.198206e-06	-1.531165e-09	-3.679063e+01	-9.886275e+01
3.500000e-07	-5.184357e-06	-1.543607e-09	-3.669261e+01	-9.883506e+01
3.600000e-07	-5.170099e-06	-1.510823e-09	-3.659169e+01	-9.879699e+01
3.700000e-07	-5.155365e-06	-1.520170e-09	-3.648741e+01	-9.874801e+01
3.800000e-07	-5.140011e-06	-1.494127e-09	-3.637875e+01	-9.868764e+01
3.900000e-07	-5.124075e-06	-1.492324e-09	-3.626596e+01	-9.861549e+01
4.000000e-07	-5.107722e-06	-1.498298e-09	-3.615022e+01	-9.853122e+01
4.100000e-07	-5.090956e-06	-1.505876e-09	-3.603155e+01	-9.843458e+01
4.200000e-07	-5.073774e-06	-1.483720e-09	-3.590995e+01	-9.832540e+01
4.300000e-07	-5.056416e-06	-1.509071e-09	-3.578709e+01	-9.820358e+01
4.400000e-07	-5.038837e-06	-1.529551e-09	-3.566268e+01	-9.806910e+01
4.500000e-07	-5.020912e-06	-1.505787e-09	-3.553582e+01	-9.792200e+01
4.600000e-07	-5.002628e-06	-1.469984e-09	-3.540641e+01	-9.776243e+01
4.700000e-07	-4.983871e-06	-1.480143e-09	-3.527365e+01	-9.759058e+01
4.800000e-07	-4.964778e-06	-1.484603e-09	-3.513852e+01	-9.740673e+01
4.900000e-07	-4.945337e-06	-1.473282e-09	-3.500093e+01	-9.721121e+01
5.000000e-07	-4.925625e-06	-1.468103e-09	-3.486141e+01	-9.700443e+01
5.100000e-07	-4.905789e-06	-1.473148e-09	-3.472102e+01	-9.678684e+01
5.200000e-07	-4.885721e-06	-1.487066e-09	-3.457899e+01	-9.655894e+01
5.300000e-07	-4.865321e-06	-1.493337e-09	-3.443461e+01	-9.632130e+01
5.400000e-07	-4.844595e-06	-1.478968e-09	-3.428792e+01	-9.607451e+01
5.500000e-07	-4.823546e-06	-1.457991e-09	-3.413894e+01	-9.581919e+01
5.600000e-07	-4.802090e-06	-1.468836e-09	-3.398709e+01	-9.555601e+01
5.700000e-07	-4.780280e-06	-1.471662e-09	-3.383273e+01	-9.528563e+01
5.800000e-07	-4.758215e-06	-1.452353e-09	-3.367656e+01	-9.500874e+01
5.900000e-07	-4.735846e-06	-1.433910e-09	-3.351824e+01	-9.472604e+01
6.000000e-07	-4.713041e-06	-1.448726e-09	-3.335684e+01	-9.443822e+01
6.100000e-07	-4.689870e-06	-1.457761e-09	-3.319285e+01	-9.414596e+01
6.200000e-07	-4.666421e-06	-1.456768e-09	-3.302689e+01	-9.384994e+01
6.300000e-07	-4.642690e-06	-1.439170e-09	-3.285892e+01	-9.355081e+01
6.400000e-07	-4.618813e-06	-1.438524e-09	-3.268993e+01	-9.324918e+01
6.500000e-07	-4.594772e-06	-1.441523e-09	-3.251978e+01	-9.294567e+01
6.600000e-07	-4.570402e-06	-1.442811e-09	-3.234730e+01	-9.264081e+01
6.700000e-07	-4.545619e-06	-1.421344e-09	-3.217190e+01	-9.233513e+01
6.800000e-07	-4.520438e-06	-1.413994e-09	-3.199368e+01	-9.202909e+01
6.900000e-07	-4.494831e-06	-1.415972e-09	-3.181245e+01	-9.172311e+01
7.000000e-07	-4.468706e-06	-1.421307e-09	-3.162755e+01	-9.141756e+01
7.100000e-07	-4.442058e-06	-1.409758e-09	-3.143894e+01	-9.111274e+01
7.200000e-07	-4.414926e-06	-1.405749e-09	-3.124691e+01	-9.080891e+01
7.300000e-07	-4.387421e-06	-1.407030e-09	-3.105224e+01	-9.050628e+01
7.400000e-07	-4.359639e-06	-1.411227e-09	-3.085562e+01	-9.020497e+01
7.500000e-07	-4.331699e-06	-1.398921e-09	-3.065787e+01	-8.990507e+01
7.600000e-07	-4.303628e-06	-1.384778e-09	-3.045919e+01	-8.960661e+01
7.700000e-07	-4.275282e-06	-1.378727e-09	-3.025858e+01	-8.930955e+01
7.800000e-07	-4.246644e-06	-1.379613e-09	-3.005588e+01	-8.901382e+01
7.900000e-07	-4.217728e-06	-1.372051e-09	-2.985123e+01	-8.871927e+01
8.000000e-07	-4.188532e-06	-1.363107e-09	-2.964459e+01	-8.842573e+01
8.100000e-07	-4.159006e-06	-1.361332e-09	-2.943562e+01	-8.813298e+01
8.200000e-07	-4.129092e-06	-1.364380e-09	-2.922390e+01	-8.784074e+01
8.300000e-07	-4.098910e-06	-1.361660e-09	-2.901029e+01	-8.754873e+01
8.400000e-07	-4.068463e-06	-1.347161e-09	-2.879480e+01	-8.725660e+01
8.500000e-07	-4.037763e-06	-1.336534e-09	-2.857752e+01	-8.696401e+01
8.600000e-07	-4.006879e-06	-1.331490e-09	-2.835893e+01	-8.667057e+01
8.700000e-07	-3.975705e-06	-1.332553e-09	-2.813829e+01	-8.637591e+01
8.800000e-07	-3.944326e-06	-1.325993e-09	-2.791621e+01	-8.607960e+01
8.900000e-07	-3.912747e-06	-1.319088e-09	-2.769271e+01	-8.578126e+01
9.000000e-07	-3.880939e-06	-1.313567e-09	-2.746759e+01	-8.548047e+01
9.100000e-07	-3.848973e-06	-1.314042e-09	-2.724134e+01	-8.517684e+01
9.200000e-07	-3.816854e-06	-1.305608e-09	-2.701402e+01	-8.486997e+01
9.300000e-07	-3.784513e-06	-1.297261e-09	-2.678512e+01	-8.455950e+01
9.400000e-07	-3.751876e-06	-1.291847e-09	-2.655413e+01	-8.424506e+01
9.500000e-07	-3.718920e-06	-1.295053e-09	-2.632089e+01	-8.392634e+01
9.600000e-07	-3.685526e-06	-1.292167e-09	-2.608453e+01	-8.360302e+01
9.700000e-07	-3.651553e-06	-1.284381e-09	-2.584409e+01	-8.327483e+01
9.800000e-07	-3.617044e-06	-1.272256e-09	-2.559985e+01	-8.294154e+01
9.900000e-07	-3.582130e-06	-1.266922e-09	-2.535275e+01	-8.260294e+01
1.000000e-06	-3.546850e-06	-1.260600e-09	-2.510305e+01	-8.225887e+01
1.010000e-06	-3.511313e-06	-1.256200e-09	-2.485153e+01	-8.190919e+01
1.020000e-06	-3.475633e-06	-1.251196e-09	-2.459901e+01	-8.155383e+01
1.030000e-06	-3.439801e-06	-1.250048e-09	-2.434541e+01	-8.119272e+01
1.040000e-06	-3.403860e-06	-1.248255e-09	-2.409103e+01	-8.082586e+01
1.050000e-06	-3.367804e-06	-1.242314e-09	-2.383584e+01	-8.045327e+01
1.060000e-06	-3.331533e-06	-1.232099e-09	-2.357913e+01	-8.007503e+01
1.070000e-06	-3.295049e-06	-1.221703e-09	-2.332092e+01	-7.969122e+01
1.080000e-06	-3.258384e-06	-1.215571e-09	-2.306141e+01	-7.930197e+01
1.090000e-06	-3.221449e-06	-1.212587e-09	-2.280000e+01	-7.890746e+01
1.100000e-06	-3.184216e-06	-1.208525e-09	-2.253648e+01	-7.850786e+01
1.110000e-06	-3.146723e-06	-1.201330e-09	-2.227112e+01	-7.810338e+01
1.120000e-06	-3.109008e-06	-1.192004e-09	-2.200419e+01	-7.769425e+01
1.130000e-06	-3.071092e-06	-1.181856e-09	-2.173585e+01	-7.728072e+01
1.140000e-06	-3.032907e-06	-1.175162e-09	-2.146559e+01	-7.686304e+01
1.150000e-06	-2.994627e-06	-1.173789e-09	-2.119466e+01	-7.644147e+01
1.160000e-06	-2.956242e-06	-1.175013e-09	-2.092299e+01	-7.601629e+01
1.170000e-06	-2.917555e-06	-1.173305e-09	-2.064917e+01	-7.558774e+01
1.180000e-06	-2.878626e-06	-1.170462e-09	-2.037365e+01	-7.515610e+01
1.190000e-06	-2.839472e-06	-1.160919e-09	-2.009654e+01	-7.472160e+01
1.200000e-06	-2.800139e-06	-1.151265e-09	-1.981816e+01	-7.428448e+01
1.210000e-06	-2.760694e-06	-1.140798e-09	-1.953898e+01	-7.384496e+01
1.220000e-06	-2.721108e-06	-1.133431e-09	-1.925881e+01	-7.340323e+01
1.230000e-06	-2.681357e-06	-1.130307e-09	-1.897747e+01	-7.295945e+01
1.240000e-06	-2.641467e-06	-1.131040e-09	-1.869514e+01	-7.251378e+01
1.250000e-06	-2.601488e-06	-1.133075e-09	-1.841219e+01	-7.206631e+01
1.260000e-06	-2.561415e-06	-1.132991e-09	-1.812858e+01	-7.161713e+01
1.270000e-06	-2.521190e-06	-1.125330e-09	-1.784388e+01	-7.116628e+01
1.280000e-06	-2.480852e-06	-1.113072e-09	-1.755838e+01	-7.071376e+01
1.290000e-06	-2.440450e-06	-1.098051e-09	-1.727243e+01	-7.025956e+01
1.300000e-06	-2.399803e-06	-1.085107e-09	-1.698475e+01	-6.980359e+01
1.310000e-06	-2.358924e-06	-1.070124e-09	-1.669543e+01	-6.934576e+01
1.320000e-06	-2.317898e-06	-1.060745e-09	-1.640506e+01	-6.888592e+01
1.330000e-06	-2.276603e-06	-1.058637e-09	-1.611280e+01	-6.842390e+01
1.340000e-06	-2.234921e-06	-1.060109e-09	-1.581779e+01	-6.795948e+01
1.350000e-06	-2.192830e-06	-1.062129e-09	-1.551989e+01	-6.749242e+01
1.360000e-06	-2.150380e-06	-1.059463e-09	-1.521945e+01	-6.702245e+01
1.370000e-06	-2.107735e-06	-1.053589e-09	-1.491763e+01	-6.654926e+01
1.380000e-06	-2.064903e-06	-1.045151e-09	-1.461448e+01	-6.607252e+01
1.390000e-06	-2.021748e-06	-1.032306e-09	-1.430904e+01	-6.559188e+01
1.400000e-06	-1.978376e-06	-1.012621e-09	-1.400208e+01	-6.510697e+01
1.410000e-06	-1.934926e-06	-9.930405e-10	-1.369456e+01	-6.461741e+01
1.420000e-06	-1.891344e-06	-9.824288e-10	-1.338611e+01	-6.412279e+01
1.430000e-06	-1.847687e-06	-9.826998e-10	-1.307712e+01	-6.362271e+01
1.440000e-06	-1.804004e-06	-9.878011e-10	-1.276795e+01	-6.311676e+01
1.450000e-06	-1.760234e-06	-9.911496e-10	-1.245817e+01	-6.260454e+01
1.460000e-06	-1.716414e-06	-9.894044e-10	-1.214802e+01	-6.208563e+01
1.470000e-06	-1.672480e-06	-9.802954e-10	-1.183708e+01	-6.155963e+01
1.480000e-06	-1.628385e-06	-9.607886e-10	-1.152500e+01	-6.102616e+01
1.490000e-06	-1.584175e-06	-9.360276e-10	-1.121210e+01	-6.048485e+01
1.500000e-06	-1.539951e-06	-9.148261e-10	-1.089910e+01	-5.993534e+01
1.510000e-06	-1.495640e-06	-9.053725e-10	-1.058548e+01	-5.937729e+01
1.520000e-06	-1.451267e-06	-9.027131e-10	-1.027143e+01	-5.881038e+01
1.530000e-06	-1.406915e-06	-9.016127e-10	-9.957525e+00	-5.823434e+01
1.540000e-06	-1.362469e-06	-8.995233e-10	-9.642962e+00	-5.764891e+01
1.550000e-06	-1.317892e-06	-8.944290e-10	-9.327460e+00	-5.705384e+01
1.560000e-06	-1.273248e-06	-8.832559e-10	-9.011490e+00	-5.644894e+01
1.570000e-06	-1.228516e-06	-8.658653e-10	-8.694895e+00	-5.583404e+01
1.580000e-06	-1.183717e-06	-8.461006e-10	-8.377827e+00	-5.520899e+01
1.590000e-06	-1.138836e-06	-8.315641e-10	-8.060183e+00	-5.457370e+01
1.600000e-06	-1.093923e-06	-8.228345e-10	-7.742304e+00	-5.392807e+01
1.610000e-06	-1.048974e-06	-8.159979e-10	-7.424180e+00	-5.327206e+01
1.620000e-06	-1.003802e-06	-8.095574e-10	-7.104474e+00	-5.260565e+01
1.630000e-06	-9.584512e-07	-8.048308e-10	-6.783498e+00	-5.192884e+01
1.640000e-06	-9.129942e-07	-7.986868e-10	-6.461773e+00	-5.124166e+01
1.650000e-06	-8.674538e-07	-7.859555e-10	-6.139458e+00	-5.054417e+01
1.660000e-06	-8.218851e-07	-7.676350e-10	-5.816942e+00	-4.983642e+01
1.670000e-06	-7.763241e-07	-7.534560e-10	-5.494482e+00	-4.911852e+01
1.680000e-06	-7.307047e-07	-7.467409e-10	-5.171608e+00	-4.839056e+01
1.690000e-06	-6.849787e-07	-7.389876e-10	-4.847979e+00	-4.765265e+01
1.700000e-06	-6.392520e-07	-7.268369e-10	-4.524346e+00	-4.690491e+01
1.710000e-06	-5.935656e-07	-7.139788e-10	-4.200997e+00	-4.614746e+01
1.720000e-06	-5.478221e-07	-7.053414e-10	-3.877245e+00	-4.538042e+01
1.730000e-06	-5.019760e-07	-6.971070e-10	-3.552766e+00	-4.460391e+01
1.740000e-06	-4.560684e-07	-6.844868e-10	-3.227852e+00	-4.381804e+01
1.750000e-06	-4.101307e-07	-6.703193e-10	-2.902725e+00	-4.302292e+01
1.760000e-06	-3.641463e-07	-6.595264e-10	-2.577268e+00	-4.221863e+01
1.770000e-06	-3.182190e-07	-6.493452e-10	-2.252214e+00	-4.140524e+01
1.780000e-06	-2.723491e-07	-6.370771e-10	-1.927567e+00	-4.058281e+01
1.790000e-06	-2.264186e-07	-6.223353e-10	-1.602492e+00	-3.975138e+01
1.800000e-06	-1.804888e-07	-6.083305e-10	-1.277421e+00	-3.891094e+01
1.810000e-06	-1.345370e-07	-5.939927e-10	-9.521942e-01	-3.806150e+01
1.820000e-06	-8.855203e-08	-5.794290e-10	-6.267324e-01	-3.720301e+01
1.830000e-06	-4.255302e-08	-5.678766e-10	-3.011716e-01	-3.633541e+01
1.840000e-06	3.465015e-09	-5.607840e-10	2.452385e-02	-3.545860e+01
1.850000e-06	4.947553e-08	-5.559006e-10	3.501661e-01	-3.457246e+01
1.860000e-06	9.546519e-08	-5.487852e-10	6.756608e-01	-3.367685e+01
1.870000e-06	1.413985e-07	-5.370899e-10	1.000757e+00	-3.277160e+01
1.880000e-06	1.873159e-07	-5.226190e-10	1.325740e+00	-3.185650e+01
1.890000e-06	2.332213e-07	-5.045554e-10	1.650638e+00	-3.093134e+01
1.900000e-06	2.791090e-07	-4.838368e-10	1.975411e+00	-2.999588e+01
1.910000e-06	3.250444e-07	-4.649074e-10	2.300522e+00	-2.904985e+01
1.920000e-06	3.710156e-07	-4.525173e-10	2.625885e+00	-2.809298e+01
1.930000e-06	4.169805e-07	-4.437285e-10	2.951205e+00	-2.712498e+01
1.940000e-06	4.628945e-07	-4.308286e-10	3.276164e+00	-2.614555e+01
1.950000e-06	5.087410e-07	-4.142265e-10	3.600646e+00	-2.515439e+01
1.960000e-06	5.545211e-07	-3.982223e-10	3.924657e+00	-2.415119e+01
1.970000e-06	6.003041e-07	-3.807425e-10	4.248689e+00	-2.313564e+01
1.980000e-06	6.460796e-07	-3.606924e-10	4.572669e+00	-2.210744e+01
1.990000e-06	6.917747e-07	-3.404820e-10	4.896078e+00	-2.106630e+01
2.000000e-06	7.374455e-07	-3.230625e-10	5.219316e+00	-2.001195e+01
2.010000e-06	7.830522e-07	-3.109690e-10	5.542100e+00	-1.894412e+01
2.020000e-06	8.285478e-07	-2.992571e-10	5.864098e+00	-1.786259e+01
2.030000e-06	8.739906e-07	-2.826536e-10	6.185722e+00	-1.676714e+01
2.040000e-06	9.193809e-07	-2.636660e-10	6.506975e+00	-1.565760e+01
2.050000e-06	9.646851e-07	-2.450947e-10	6.827618e+00	-1.453382e+01
2.060000e-06	1.009895e-06	-2.238573e-10	7.147594e+00	-1.339568e+01
2.070000e-06	1.054976e-06	-1.993834e-10	7.466656e+00	-1.224313e+01
2.080000e-06	1.099920e-06	-1.761275e-10	7.784753e+00	-1.107614e+01
2.090000e-06	1.144821e-06	-1.584202e-10	8.102541e+00	-9.894732e+00
2.100000e-06	1.189663e-06	-1.433209e-10	8.419910e+00	-8.698970e+00
2.110000e-06	1.234412e-06	-1.255675e-10	8.736626e+00	-7.488975e+00
2.120000e-06	1.279058e-06	-1.051105e-10	9.052609e+00	-6.264914e+00
2.130000e-06	1.323545e-06	-8.612332e-11	9.367473e+00	-5.027007e+00
2.140000e-06	1.367980e-06	-6.831219e-11	9.681965e+00	-3.775526e+00
2.150000e-06	1.412386e-06	-4.912493e-11	9.996246e+00	-2.510795e+00
2.160000e-06	1.456696e-06	-2.714591e-11	1.030985e+01	-1.233187e+00
2.170000e-06	1.500904e-06	-5.739869e-12	1.062274e+01	5.687308e-02
2.180000e-06	1.545077e-06	1.464345e-11	1.093538e+01	1.358911e+00
2.190000e-06	1.589189e-06	3.483648e-11	1.124758e+01	2.672406e+00
2.200000e-06	1.633241e-06	5.462279e-11	1.155936e+01	3.996793e+00
2.210000e-06	1.677249e-06	7.235617e-11	1.187083e+01	5.331463e+00
2.220000e-06	1.721170e-06	9.039579e-11	1.218169e+01	6.675767e+00
2.230000e-06	1.765023e-06	1.119532e-10	1.249206e+01	8.029020e+00
2.240000e-06	1.808797e-06	1.382726e-10	1.280187e+01	9.390505e+00
2.250000e-06	1.852500e-06	1.654019e-10	1.311118e+01	1.075947e+01
2.260000e-06	1.896097e-06	1.906071e-10	1.341974e+01	1.213515e+01
2.270000e-06	1.939577e-06	2.154014e-10	1.372748e+01	1.351674e+01
2.280000e-06	1.982949e-06	2.371755e-10	1.403444e+01	1.490343e+01
2.290000e-06	2.026134e-06	2.546168e-10	1.434009e+01	1.629439e+01
2.300000e-06	2.069097e-06	2.691721e-10	1.464416e+01	1.768878e+01
2.310000e-06	2.111934e-06	2.871542e-10	1.494734e+01	1.908576e+01
2.320000e-06	2.154588e-06	3.117398e-10	1.524923e+01	2.048449e+01
2.330000e-06	2.196905e-06	3.363573e-10	1.554873e+01	2.188411e+01
2.340000e-06	2.238843e-06	3.577989e-10	1.584555e+01	2.328380e+01
2.350000e-06	2.280489e-06	3.806207e-10	1.614030e+01	2.468271e+01
2.360000e-06	2.321755e-06	4.042730e-10	1.643237e+01	2.608004e+01
2.370000e-06	2.362616e-06	4.262729e-10	1.672156e+01	2.747498e+01
2.380000e-06	2.403315e-06	4.448692e-10	1.700961e+01	2.886675e+01
2.390000e-06	2.443913e-06	4.649352e-10	1.729694e+01	3.025458e+01
2.400000e-06	2.484337e-06	4.870730e-10	1.758305e+01	3.163774e+01
2.410000e-06	2.524560e-06	5.077214e-10	1.786773e+01	3.301550e+01
2.420000e-06	2.564686e-06	5.284259e-10	1.815173e+01	3.438717e+01
2.430000e-06	2.604747e-06	5.514936e-10	1.843526e+01	3.575210e+01
2.440000e-06	2.644668e-06	5.753614e-10	1.871780e+01	3.710964e+01
2.450000e-06	2.684473e-06	5.974953e-10	1.899952e+01	3.845918e+01
2.460000e-06	2.724217e-06	6.180907e-10	1.928081e+01	3.980015e+01
2.470000e-06	2.763853e-06	6.384859e-10	1.956134e+01	4.113199e+01
2.480000e-06	2.803245e-06	6.586552e-10	1.984014e+01	4.245418e+01
2.490000e-06	2.842423e-06	6.771513e-10	2.011742e+01	4.376621e+01
2.500000e-06	2.881448e-06	6.938803e-10	2.039363e+01	4.506762e+01
2.510000e-06	2.920179e-06	7.124422e-10	2.066775e+01	4.635795e+01
2.520000e-06	2.958661e-06	7.373308e-10	2.094011e+01	4.763677e+01
2.530000e-06	2.996973e-06	7.645535e-10	2.121126e+01	4.890368e+01
2.540000e-06	3.035079e-06	7.873270e-10	2.148096e+01	5.015830e+01
2.550000e-06	3.073014e-06	8.033184e-10	2.174944e+01	5.140025e+01
2.560000e-06	3.110809e-06	8.154027e-10	2.201694e+01	5.262918e+01
2.570000e-06	3.148401e-06	8.278511e-10	2.228300e+01	5.384474e+01
2.580000e-06	3.185798e-06	8.407210e-10	2.254769e+01	5.504662e+01
2.590000e-06	3.222986e-06	8.572737e-10	2.281088e+01	5.623450e+01
2.600000e-06	3.259842e-06	8.815151e-10	2.307173e+01	5.740805e+01
2.610000e-06	3.296379e-06	9.107831e-10	2.333033e+01	5.856699e+01
2.620000e-06	3.332682e-06	9.372684e-10	2.358726e+01	5.971102e+01
2.630000e-06	3.368850e-06	9.555585e-10	2.384324e+01	6.083983e+01
2.640000e-06	3.404883e-06	9.692495e-10	2.409827e+01	6.195315e+01
2.650000e-06	3.440791e-06	9.812199e-10	2.435241e+01	6.305069e+01
2.660000e-06	3.476594e-06	9.909139e-10	2.460581e+01	6.413215e+01
2.670000e-06	3.512256e-06	1.000040e-09	2.485821e+01	6.519726e+01
2.680000e-06	3.547674e-06	1.014868e-09	2.510888e+01	6.624573e+01
2.690000e-06	3.582698e-06	1.037587e-09	2.535677e+01	6.727729e+01
2.700000e-06	3.617221e-06	1.062328e-09	2.560110e+01	6.829165e+01
2.710000e-06	3.651356e-06	1.084069e-09	2.584270e+01	6.928855e+01
2.720000e-06	3.685173e-06	1.101333e-09	2.608204e+01	7.026771e+01
2.730000e-06	3.718538e-06	1.114937e-09	2.631818e+01	7.122887e+01
2.740000e-06	3.751451e-06	1.124740e-09	2.655113e+01	7.217177e+01
2.750000e-06	3.784010e-06	1.133286e-09	2.678157e+01	7.309617e+01
2.760000e-06	3.816336e-06	1.144077e-09	2.701036e+01	7.400182e+01
2.770000e-06	3.848502e-06	1.158685e-09	2.723801e+01	7.488852e+01
2.780000e-06	3.880508e-06	1.177434e-09	2.746453e+01	7.575604e+01
2.790000e-06	3.912331e-06	1.195541e-09	2.768976e+01	7.660419e+01
2.800000e-06	3.943984e-06	1.208426e-09	2.791379e+01	7.743282e+01
2.810000e-06	3.975451e-06	1.217263e-09	2.813650e+01	7.824176e+01
2.820000e-06	4.006591e-06	1.227094e-09	2.835690e+01	7.903091e+01
2.830000e-06	4.037381e-06	1.238656e-09	2.857482e+01	7.980015e+01
2.840000e-06	4.067930e-06	1.249393e-09	2.879102e+01	8.054943e+01
2.850000e-06	4.098170e-06	1.260284e-09	2.900505e+01	8.127872e+01
2.860000e-06	4.128097e-06	1.272697e-09	2.921686e+01	8.198800e+01
2.870000e-06	4.157772e-06	1.287062e-09	2.942689e+01	8.267731e+01
2.880000e-06	4.187154e-06	1.299305e-09	2.963484e+01	8.334673e+01
2.890000e-06	4.216258e-06	1.305607e-09	2.984083e+01	8.399636e+01
2.900000e-06	4.245082e-06	1.311481e-09	3.004483e+01	8.462635e+01
