# Temperatura_=_-1.24
# Concentracion g/m^3_=_4090.0
# C_Vs_to_Am_M_A/Vsm_=_65563218390.804596
# pendiente_HvsI_1/m_=_3716.3
# ordenada_HvsI_A/m_=_1297.0
# frecuencia_Hz_=_135076.20465795195

Tiempo_(s)	Campo_(V.s)	Magnetizacion_(V.s)	Campo_(kA/m)	Magnetizacion_(A/m)
0.000000e+00	-5.414629e-06	-2.132347e-09	-3.838288e+01	-1.408949e+02
1.000000e-08	-5.414729e-06	-2.124953e-09	-3.838359e+01	-1.407918e+02
2.000000e-08	-5.414719e-06	-2.122058e-09	-3.838352e+01	-1.406942e+02
3.000000e-08	-5.414453e-06	-2.120978e-09	-3.838164e+01	-1.406026e+02
4.000000e-08	-5.413791e-06	-2.122805e-09	-3.837694e+01	-1.405179e+02
5.000000e-08	-5.412636e-06	-2.126414e-09	-3.836876e+01	-1.404406e+02
6.000000e-08	-5.410887e-06	-2.128575e-09	-3.835636e+01	-1.403712e+02
7.000000e-08	-5.408467e-06	-2.133566e-09	-3.833920e+01	-1.403104e+02
8.000000e-08	-5.405306e-06	-2.151033e-09	-3.831680e+01	-1.402584e+02
9.000000e-08	-5.401543e-06	-2.133740e-09	-3.829012e+01	-1.402156e+02
1.000000e-07	-5.397376e-06	-2.077192e-09	-3.826058e+01	-1.401824e+02
1.100000e-07	-5.393082e-06	-2.091991e-09	-3.823014e+01	-1.401589e+02
1.200000e-07	-5.388758e-06	-2.162319e-09	-3.819949e+01	-1.401451e+02
1.300000e-07	-5.384101e-06	-2.164624e-09	-3.816648e+01	-1.401411e+02
1.400000e-07	-5.378909e-06	-2.070946e-09	-3.812967e+01	-1.401468e+02
1.500000e-07	-5.373373e-06	-2.073934e-09	-3.809043e+01	-1.401620e+02
1.600000e-07	-5.367628e-06	-2.177461e-09	-3.804970e+01	-1.401864e+02
1.700000e-07	-5.361366e-06	-2.142565e-09	-3.800532e+01	-1.402196e+02
1.800000e-07	-5.354484e-06	-2.040266e-09	-3.795653e+01	-1.402612e+02
1.900000e-07	-5.347420e-06	-2.036135e-09	-3.790645e+01	-1.403106e+02
2.000000e-07	-5.340286e-06	-2.173203e-09	-3.785589e+01	-1.403671e+02
2.100000e-07	-5.332752e-06	-2.140424e-09	-3.780248e+01	-1.404300e+02
2.200000e-07	-5.324800e-06	-2.084457e-09	-3.774611e+01	-1.404985e+02
2.300000e-07	-5.316704e-06	-2.131446e-09	-3.768872e+01	-1.405717e+02
2.400000e-07	-5.308349e-06	-2.219223e-09	-3.762949e+01	-1.406486e+02
2.500000e-07	-5.299317e-06	-2.160753e-09	-3.756547e+01	-1.407284e+02
2.600000e-07	-5.289620e-06	-2.137682e-09	-3.749672e+01	-1.408098e+02
2.700000e-07	-5.279392e-06	-2.223528e-09	-3.742422e+01	-1.408919e+02
2.800000e-07	-5.268560e-06	-2.236470e-09	-3.734744e+01	-1.409734e+02
2.900000e-07	-5.257217e-06	-2.140804e-09	-3.726703e+01	-1.410534e+02
3.000000e-07	-5.245562e-06	-2.163676e-09	-3.718441e+01	-1.411305e+02
3.100000e-07	-5.233483e-06	-2.265588e-09	-3.709879e+01	-1.412037e+02
3.200000e-07	-5.220913e-06	-2.214488e-09	-3.700968e+01	-1.412718e+02
3.300000e-07	-5.208037e-06	-2.147108e-09	-3.691841e+01	-1.413337e+02
3.400000e-07	-5.194816e-06	-2.187854e-09	-3.682469e+01	-1.413883e+02
3.500000e-07	-5.181150e-06	-2.233443e-09	-3.672781e+01	-1.414344e+02
3.600000e-07	-5.167131e-06	-2.176527e-09	-3.662843e+01	-1.414712e+02
3.700000e-07	-5.152794e-06	-2.182780e-09	-3.652681e+01	-1.414977e+02
3.800000e-07	-5.137907e-06	-2.193221e-09	-3.642127e+01	-1.415128e+02
3.900000e-07	-5.122265e-06	-2.171871e-09	-3.631039e+01	-1.415159e+02
4.000000e-07	-5.106129e-06	-2.171501e-09	-3.619601e+01	-1.415062e+02
4.100000e-07	-5.089637e-06	-2.216769e-09	-3.607910e+01	-1.414830e+02
4.200000e-07	-5.072725e-06	-2.172692e-09	-3.595921e+01	-1.414458e+02
4.300000e-07	-5.055537e-06	-2.149430e-09	-3.583737e+01	-1.413940e+02
4.400000e-07	-5.038076e-06	-2.190144e-09	-3.571360e+01	-1.413273e+02
4.500000e-07	-5.020235e-06	-2.204365e-09	-3.558713e+01	-1.412455e+02
4.600000e-07	-5.002059e-06	-2.129787e-09	-3.545829e+01	-1.411483e+02
4.700000e-07	-4.983604e-06	-2.128334e-09	-3.532746e+01	-1.410356e+02
4.800000e-07	-4.964767e-06	-2.157635e-09	-3.519393e+01	-1.409076e+02
4.900000e-07	-4.945530e-06	-2.162811e-09	-3.505756e+01	-1.407644e+02
5.000000e-07	-4.925938e-06	-2.141148e-09	-3.491868e+01	-1.406061e+02
5.100000e-07	-4.906088e-06	-2.145029e-09	-3.477797e+01	-1.404331e+02
5.200000e-07	-4.886046e-06	-2.138572e-09	-3.463590e+01	-1.402459e+02
5.300000e-07	-4.865784e-06	-2.149283e-09	-3.449226e+01	-1.400448e+02
5.400000e-07	-4.845287e-06	-2.141386e-09	-3.434697e+01	-1.398306e+02
5.500000e-07	-4.824465e-06	-2.112734e-09	-3.419937e+01	-1.396038e+02
5.600000e-07	-4.803223e-06	-2.104221e-09	-3.404878e+01	-1.393653e+02
5.700000e-07	-4.781593e-06	-2.133463e-09	-3.389546e+01	-1.391157e+02
5.800000e-07	-4.759639e-06	-2.131936e-09	-3.373983e+01	-1.388558e+02
5.900000e-07	-4.737345e-06	-2.104785e-09	-3.358179e+01	-1.385867e+02
6.000000e-07	-4.714763e-06	-2.098459e-09	-3.342172e+01	-1.383091e+02
6.100000e-07	-4.691900e-06	-2.108195e-09	-3.325965e+01	-1.380240e+02
6.200000e-07	-4.668704e-06	-2.110268e-09	-3.309521e+01	-1.377322e+02
6.300000e-07	-4.645257e-06	-2.090688e-09	-3.292901e+01	-1.374349e+02
6.400000e-07	-4.621514e-06	-2.076348e-09	-3.276070e+01	-1.371327e+02
6.500000e-07	-4.597508e-06	-2.080953e-09	-3.259052e+01	-1.368268e+02
6.600000e-07	-4.573299e-06	-2.099868e-09	-3.241891e+01	-1.365179e+02
6.700000e-07	-4.548779e-06	-2.086999e-09	-3.224510e+01	-1.362069e+02
6.800000e-07	-4.523869e-06	-2.067413e-09	-3.206852e+01	-1.358947e+02
6.900000e-07	-4.498556e-06	-2.057819e-09	-3.188908e+01	-1.355819e+02
7.000000e-07	-4.472590e-06	-2.065680e-09	-3.170502e+01	-1.352692e+02
7.100000e-07	-4.446086e-06	-2.053649e-09	-3.151714e+01	-1.349574e+02
7.200000e-07	-4.419150e-06	-2.042122e-09	-3.132619e+01	-1.346469e+02
7.300000e-07	-4.391703e-06	-2.035512e-09	-3.113163e+01	-1.343383e+02
7.400000e-07	-4.364058e-06	-2.053815e-09	-3.093566e+01	-1.340321e+02
7.500000e-07	-4.336282e-06	-2.057946e-09	-3.073877e+01	-1.337284e+02
7.600000e-07	-4.308321e-06	-2.047672e-09	-3.054055e+01	-1.334276e+02
7.700000e-07	-4.280108e-06	-2.029052e-09	-3.034056e+01	-1.331299e+02
7.800000e-07	-4.251639e-06	-2.030771e-09	-3.013876e+01	-1.328354e+02
7.900000e-07	-4.222875e-06	-2.025834e-09	-2.993485e+01	-1.325441e+02
8.000000e-07	-4.193775e-06	-2.015335e-09	-2.972857e+01	-1.322559e+02
8.100000e-07	-4.164367e-06	-2.001030e-09	-2.952010e+01	-1.319707e+02
8.200000e-07	-4.134701e-06	-2.004437e-09	-2.930981e+01	-1.316883e+02
8.300000e-07	-4.104782e-06	-2.012071e-09	-2.909772e+01	-1.314084e+02
8.400000e-07	-4.074545e-06	-2.011782e-09	-2.888338e+01	-1.311306e+02
8.500000e-07	-4.044002e-06	-1.997032e-09	-2.866687e+01	-1.308547e+02
8.600000e-07	-4.013191e-06	-1.988353e-09	-2.844846e+01	-1.305800e+02
8.700000e-07	-3.982119e-06	-1.990031e-09	-2.822820e+01	-1.303061e+02
8.800000e-07	-3.950787e-06	-1.987934e-09	-2.800609e+01	-1.300326e+02
8.900000e-07	-3.919208e-06	-1.973712e-09	-2.778223e+01	-1.297587e+02
9.000000e-07	-3.887465e-06	-1.960386e-09	-2.755722e+01	-1.294841e+02
9.100000e-07	-3.855585e-06	-1.961037e-09	-2.733123e+01	-1.292079e+02
9.200000e-07	-3.823572e-06	-1.962808e-09	-2.710430e+01	-1.289297e+02
9.300000e-07	-3.791379e-06	-1.957479e-09	-2.687609e+01	-1.286489e+02
9.400000e-07	-3.758889e-06	-1.948850e-09	-2.664578e+01	-1.283648e+02
9.500000e-07	-3.726012e-06	-1.952910e-09	-2.641272e+01	-1.280769e+02
9.600000e-07	-3.692673e-06	-1.956175e-09	-2.617639e+01	-1.277846e+02
9.700000e-07	-3.658905e-06	-1.949406e-09	-2.593702e+01	-1.274874e+02
9.800000e-07	-3.624833e-06	-1.931175e-09	-2.569549e+01	-1.271848e+02
9.900000e-07	-3.590452e-06	-1.920556e-09	-2.545177e+01	-1.268763e+02
1.000000e-06	-3.555598e-06	-1.914734e-09	-2.520470e+01	-1.265617e+02
1.010000e-06	-3.520312e-06	-1.914032e-09	-2.495456e+01	-1.262404e+02
1.020000e-06	-3.484754e-06	-1.910551e-09	-2.470250e+01	-1.259122e+02
1.030000e-06	-3.449040e-06	-1.911665e-09	-2.444934e+01	-1.255770e+02
1.040000e-06	-3.413232e-06	-1.911538e-09	-2.419550e+01	-1.252344e+02
1.050000e-06	-3.377328e-06	-1.908393e-09	-2.394099e+01	-1.248844e+02
1.060000e-06	-3.341259e-06	-1.892380e-09	-2.368531e+01	-1.245269e+02
1.070000e-06	-3.304988e-06	-1.876587e-09	-2.342819e+01	-1.241619e+02
1.080000e-06	-3.268491e-06	-1.863609e-09	-2.316947e+01	-1.237895e+02
1.090000e-06	-3.231696e-06	-1.859987e-09	-2.290865e+01	-1.234098e+02
1.100000e-06	-3.194658e-06	-1.858273e-09	-2.264609e+01	-1.230229e+02
1.110000e-06	-3.157347e-06	-1.859325e-09	-2.238161e+01	-1.226291e+02
1.120000e-06	-3.119766e-06	-1.858188e-09	-2.211520e+01	-1.222286e+02
1.130000e-06	-3.082111e-06	-1.852292e-09	-2.184828e+01	-1.218218e+02
1.140000e-06	-3.044322e-06	-1.838144e-09	-2.158040e+01	-1.214089e+02
1.150000e-06	-3.006236e-06	-1.823952e-09	-2.131041e+01	-1.209903e+02
1.160000e-06	-2.967872e-06	-1.812971e-09	-2.103847e+01	-1.205665e+02
1.170000e-06	-2.929353e-06	-1.805094e-09	-2.076542e+01	-1.201378e+02
1.180000e-06	-2.890654e-06	-1.797440e-09	-2.049109e+01	-1.197047e+02
1.190000e-06	-2.851698e-06	-1.789465e-09	-2.021494e+01	-1.192675e+02
1.200000e-06	-2.812575e-06	-1.784154e-09	-1.993760e+01	-1.188267e+02
1.210000e-06	-2.773298e-06	-1.781397e-09	-1.965918e+01	-1.183826e+02
1.220000e-06	-2.733842e-06	-1.778017e-09	-1.937949e+01	-1.179358e+02
1.230000e-06	-2.694227e-06	-1.770637e-09	-1.909867e+01	-1.174865e+02
1.240000e-06	-2.654453e-06	-1.762098e-09	-1.881672e+01	-1.170351e+02
1.250000e-06	-2.614542e-06	-1.753846e-09	-1.853380e+01	-1.165819e+02
1.260000e-06	-2.574524e-06	-1.747906e-09	-1.825012e+01	-1.161272e+02
1.270000e-06	-2.534400e-06	-1.738058e-09	-1.796570e+01	-1.156711e+02
1.280000e-06	-2.494191e-06	-1.729654e-09	-1.768067e+01	-1.152138e+02
1.290000e-06	-2.453866e-06	-1.723284e-09	-1.739481e+01	-1.147555e+02
1.300000e-06	-2.413345e-06	-1.718858e-09	-1.710757e+01	-1.142962e+02
1.310000e-06	-2.372642e-06	-1.708889e-09	-1.681903e+01	-1.138359e+02
1.320000e-06	-2.331717e-06	-1.698095e-09	-1.652893e+01	-1.133746e+02
1.330000e-06	-2.290595e-06	-1.689494e-09	-1.623743e+01	-1.129120e+02
1.340000e-06	-2.249129e-06	-1.687100e-09	-1.594348e+01	-1.124481e+02
1.350000e-06	-2.207224e-06	-1.683966e-09	-1.564643e+01	-1.119826e+02
1.360000e-06	-2.165159e-06	-1.677797e-09	-1.534825e+01	-1.115152e+02
1.370000e-06	-2.123019e-06	-1.669417e-09	-1.504952e+01	-1.110455e+02
1.380000e-06	-2.080602e-06	-1.662749e-09	-1.474884e+01	-1.105732e+02
1.390000e-06	-2.037837e-06	-1.653898e-09	-1.444569e+01	-1.100977e+02
1.400000e-06	-1.994835e-06	-1.642516e-09	-1.414086e+01	-1.096185e+02
1.410000e-06	-1.951630e-06	-1.631028e-09	-1.383459e+01	-1.091351e+02
1.420000e-06	-1.908269e-06	-1.625122e-09	-1.352722e+01	-1.086469e+02
1.430000e-06	-1.864774e-06	-1.622142e-09	-1.321889e+01	-1.081533e+02
1.440000e-06	-1.821094e-06	-1.618351e-09	-1.290926e+01	-1.076535e+02
1.450000e-06	-1.777282e-06	-1.611972e-09	-1.259868e+01	-1.071470e+02
1.460000e-06	-1.733414e-06	-1.605076e-09	-1.228771e+01	-1.066329e+02
1.470000e-06	-1.689489e-06	-1.597008e-09	-1.197634e+01	-1.061107e+02
1.480000e-06	-1.645523e-06	-1.585466e-09	-1.166468e+01	-1.055796e+02
1.490000e-06	-1.601532e-06	-1.574389e-09	-1.135284e+01	-1.050389e+02
1.500000e-06	-1.557496e-06	-1.565002e-09	-1.104068e+01	-1.044879e+02
1.510000e-06	-1.513376e-06	-1.559222e-09	-1.072793e+01	-1.039259e+02
1.520000e-06	-1.469136e-06	-1.555718e-09	-1.041432e+01	-1.033522e+02
1.530000e-06	-1.424773e-06	-1.550385e-09	-1.009984e+01	-1.027661e+02
1.540000e-06	-1.380391e-06	-1.540955e-09	-9.785229e+00	-1.021671e+02
1.550000e-06	-1.335991e-06	-1.530094e-09	-9.470489e+00	-1.015545e+02
1.560000e-06	-1.291424e-06	-1.518313e-09	-9.154569e+00	-1.009277e+02
1.570000e-06	-1.246770e-06	-1.507782e-09	-8.838023e+00	-1.002862e+02
1.580000e-06	-1.202054e-06	-1.499470e-09	-8.521045e+00	-9.962951e+01
1.590000e-06	-1.157201e-06	-1.490330e-09	-8.203097e+00	-9.895714e+01
1.600000e-06	-1.112312e-06	-1.479260e-09	-7.884887e+00	-9.826864e+01
1.610000e-06	-1.067334e-06	-1.468589e-09	-7.566048e+00	-9.756361e+01
1.620000e-06	-1.022265e-06	-1.457656e-09	-7.246571e+00	-9.684167e+01
1.630000e-06	-9.771378e-07	-1.446685e-09	-6.926673e+00	-9.610250e+01
1.640000e-06	-9.318054e-07	-1.434828e-09	-6.605324e+00	-9.534577e+01
1.650000e-06	-8.863879e-07	-1.424872e-09	-6.283371e+00	-9.457119e+01
1.660000e-06	-8.409888e-07	-1.415922e-09	-5.961549e+00	-9.377850e+01
1.670000e-06	-7.955474e-07	-1.406047e-09	-5.639427e+00	-9.296744e+01
1.680000e-06	-7.500730e-07	-1.392075e-09	-5.317071e+00	-9.213777e+01
1.690000e-06	-7.045014e-07	-1.376010e-09	-4.994025e+00	-9.128925e+01
1.700000e-06	-6.588239e-07	-1.360993e-09	-4.670230e+00	-9.042165e+01
1.710000e-06	-6.131131e-07	-1.347238e-09	-4.346198e+00	-8.953471e+01
1.720000e-06	-5.673694e-07	-1.333138e-09	-4.021933e+00	-8.862820e+01
1.730000e-06	-5.216676e-07	-1.321533e-09	-3.697965e+00	-8.770183e+01
1.740000e-06	-4.759966e-07	-1.311147e-09	-3.374215e+00	-8.675529e+01
1.750000e-06	-4.302156e-07	-1.300601e-09	-3.049685e+00	-8.578828e+01
1.760000e-06	-3.842867e-07	-1.284722e-09	-2.724108e+00	-8.480040e+01
1.770000e-06	-3.383764e-07	-1.261378e-09	-2.398662e+00	-8.379126e+01
1.780000e-06	-2.925006e-07	-1.237862e-09	-2.073460e+00	-8.276040e+01
1.790000e-06	-2.466077e-07	-1.219453e-09	-1.748137e+00	-8.170731e+01
1.800000e-06	-2.007120e-07	-1.200694e-09	-1.422795e+00	-8.063143e+01
1.810000e-06	-1.547617e-07	-1.178659e-09	-1.097065e+00	-7.953213e+01
1.820000e-06	-1.088086e-07	-1.159285e-09	-7.713159e-01	-7.840872e+01
1.830000e-06	-6.289319e-08	-1.144967e-09	-4.458333e-01	-7.726046e+01
1.840000e-06	-1.699752e-08	-1.131725e-09	-1.204909e-01	-7.608653e+01
1.850000e-06	2.897957e-08	-1.115063e-09	2.054286e-01	-7.488606e+01
1.860000e-06	7.501379e-08	-1.097262e-09	5.317531e-01	-7.365810e+01
1.870000e-06	1.209448e-07	-1.079691e-09	8.573456e-01	-7.240165e+01
1.880000e-06	1.667844e-07	-1.059285e-09	1.182291e+00	-7.111565e+01
1.890000e-06	2.126532e-07	-1.032453e-09	1.507443e+00	-6.979899e+01
1.900000e-06	2.585781e-07	-1.002063e-09	1.832992e+00	-6.845049e+01
1.910000e-06	3.044538e-07	-9.734907e-10	2.158193e+00	-6.706897e+01
1.920000e-06	3.502528e-07	-9.514886e-10	2.482850e+00	-6.565316e+01
1.930000e-06	3.960387e-07	-9.332715e-10	2.807414e+00	-6.420181e+01
1.940000e-06	4.417434e-07	-9.148740e-10	3.131403e+00	-6.271363e+01
1.950000e-06	4.874225e-07	-8.943119e-10	3.455210e+00	-6.118731e+01
1.960000e-06	5.331589e-07	-8.708991e-10	3.779423e+00	-5.962157e+01
1.970000e-06	5.788412e-07	-8.402634e-10	4.103253e+00	-5.801512e+01
1.980000e-06	6.244284e-07	-8.040440e-10	4.426409e+00	-5.636670e+01
1.990000e-06	6.699260e-07	-7.709237e-10	4.748929e+00	-5.467509e+01
2.000000e-06	7.154247e-07	-7.464777e-10	5.071458e+00	-5.293912e+01
2.010000e-06	7.609994e-07	-7.262905e-10	5.394525e+00	-5.115767e+01
2.020000e-06	8.065151e-07	-7.054199e-10	5.717174e+00	-4.932971e+01
2.030000e-06	8.518753e-07	-6.803859e-10	6.038720e+00	-4.745430e+01
2.040000e-06	8.971568e-07	-6.515789e-10	6.359709e+00	-4.553058e+01
2.050000e-06	9.424083e-07	-6.199770e-10	6.680485e+00	-4.355783e+01
2.060000e-06	9.875760e-07	-5.832803e-10	7.000667e+00	-4.153542e+01
2.070000e-06	1.032680e-06	-5.441308e-10	7.320397e+00	-3.946290e+01
2.080000e-06	1.077781e-06	-5.087660e-10	7.640105e+00	-3.733993e+01
2.090000e-06	1.122805e-06	-4.774457e-10	7.959269e+00	-3.516634e+01
2.100000e-06	1.167597e-06	-4.473831e-10	8.276788e+00	-3.294214e+01
2.110000e-06	1.212306e-06	-4.171248e-10	8.593717e+00	-3.066751e+01
2.120000e-06	1.256923e-06	-3.838633e-10	8.910000e+00	-2.834279e+01
2.130000e-06	1.301422e-06	-3.478548e-10	9.225441e+00	-2.596855e+01
2.140000e-06	1.345912e-06	-3.105341e-10	9.540818e+00	-2.354551e+01
2.150000e-06	1.390272e-06	-2.733562e-10	9.855271e+00	-2.107463e+01
2.160000e-06	1.434465e-06	-2.369437e-10	1.016854e+01	-1.855704e+01
2.170000e-06	1.478592e-06	-2.016079e-10	1.048135e+01	-1.599408e+01
2.180000e-06	1.522733e-06	-1.656246e-10	1.079426e+01	-1.338729e+01
2.190000e-06	1.566849e-06	-1.281458e-10	1.110698e+01	-1.073842e+01
2.200000e-06	1.610912e-06	-9.033557e-11	1.141933e+01	-8.049396e+00
2.210000e-06	1.654914e-06	-5.270022e-11	1.173125e+01	-5.322343e+00
2.220000e-06	1.698860e-06	-1.120689e-11	1.204277e+01	-2.559570e+00
2.230000e-06	1.742765e-06	3.433543e-11	1.235400e+01	2.364375e-01
2.240000e-06	1.786611e-06	7.872235e-11	1.266482e+01	3.063028e+00
2.250000e-06	1.830343e-06	1.190152e-10	1.297482e+01	5.917393e+00
2.260000e-06	1.873959e-06	1.588766e-10	1.328400e+01	8.796579e+00
2.270000e-06	1.917436e-06	2.008158e-10	1.359220e+01	1.169750e+01
2.280000e-06	1.960785e-06	2.448417e-10	1.389949e+01	1.461695e+01
2.290000e-06	2.003990e-06	2.889247e-10	1.420576e+01	1.755161e+01
2.300000e-06	2.046918e-06	3.314442e-10	1.451006e+01	2.049809e+01
2.310000e-06	2.089659e-06	3.748573e-10	1.481304e+01	2.345291e+01
2.320000e-06	2.132199e-06	4.197612e-10	1.511460e+01	2.641254e+01
2.330000e-06	2.174490e-06	4.631153e-10	1.541439e+01	2.937341e+01
2.340000e-06	2.216495e-06	5.022074e-10	1.571215e+01	3.233192e+01
2.350000e-06	2.258124e-06	5.400162e-10	1.600725e+01	3.528448e+01
2.360000e-06	2.299389e-06	5.825126e-10	1.629976e+01	3.822749e+01
2.370000e-06	2.340344e-06	6.299380e-10	1.659008e+01	4.115739e+01
2.380000e-06	2.381097e-06	6.785356e-10	1.687897e+01	4.407067e+01
2.390000e-06	2.421703e-06	7.250365e-10	1.716682e+01	4.696388e+01
2.400000e-06	2.462124e-06	7.679235e-10	1.745335e+01	4.983363e+01
2.410000e-06	2.502366e-06	8.086154e-10	1.773862e+01	5.267665e+01
2.420000e-06	2.542454e-06	8.493520e-10	1.802279e+01	5.548976e+01
2.430000e-06	2.582427e-06	8.908059e-10	1.830615e+01	5.826991e+01
2.440000e-06	2.622323e-06	9.327600e-10	1.858896e+01	6.101418e+01
2.450000e-06	2.662157e-06	9.762806e-10	1.887133e+01	6.371979e+01
2.460000e-06	2.701886e-06	1.022332e-09	1.915296e+01	6.638413e+01
2.470000e-06	2.741437e-06	1.065714e-09	1.943333e+01	6.900474e+01
2.480000e-06	2.780857e-06	1.101899e-09	1.971276e+01	7.157934e+01
2.490000e-06	2.820114e-06	1.133564e-09	1.999105e+01	7.410584e+01
2.500000e-06	2.859152e-06	1.166224e-09	2.026778e+01	7.658233e+01
2.510000e-06	2.898004e-06	1.202012e-09	2.054319e+01	7.900707e+01
2.520000e-06	2.936666e-06	1.240971e-09	2.081725e+01	8.137854e+01
2.530000e-06	2.975082e-06	1.282433e-09	2.108957e+01	8.369539e+01
2.540000e-06	3.013272e-06	1.323710e-09	2.136030e+01	8.595649e+01
2.550000e-06	3.051337e-06	1.361102e-09	2.163013e+01	8.816089e+01
2.560000e-06	3.089237e-06	1.390974e-09	2.189879e+01	9.030782e+01
2.570000e-06	3.126852e-06	1.413595e-09	2.216543e+01	9.239670e+01
2.580000e-06	3.164247e-06	1.436116e-09	2.243052e+01	9.442715e+01
2.590000e-06	3.201377e-06	1.464344e-09	2.269372e+01	9.639896e+01
2.600000e-06	3.238192e-06	1.496479e-09	2.295469e+01	9.831207e+01
2.610000e-06	3.274795e-06	1.530110e-09	2.321416e+01	1.001666e+02
2.620000e-06	3.311176e-06	1.564510e-09	2.347206e+01	1.019628e+02
2.630000e-06	3.347377e-06	1.596482e-09	2.372868e+01	1.037012e+02
2.640000e-06	3.383490e-06	1.620398e-09	2.398467e+01	1.053822e+02
2.650000e-06	3.419462e-06	1.635961e-09	2.423967e+01	1.070065e+02
2.660000e-06	3.455274e-06	1.648193e-09	2.449353e+01	1.085750e+02
2.670000e-06	3.490940e-06	1.663502e-09	2.474636e+01	1.100884e+02
2.680000e-06	3.526349e-06	1.683807e-09	2.499736e+01	1.115479e+02
2.690000e-06	3.561502e-06	1.707558e-09	2.524655e+01	1.129545e+02
2.700000e-06	3.596335e-06	1.733712e-09	2.549347e+01	1.143094e+02
2.710000e-06	3.630792e-06	1.762467e-09	2.573773e+01	1.156136e+02
2.720000e-06	3.664904e-06	1.786129e-09	2.597954e+01	1.168686e+02
2.730000e-06	3.698549e-06	1.801440e-09	2.621805e+01	1.180755e+02
2.740000e-06	3.731673e-06	1.811503e-09	2.645285e+01	1.192358e+02
2.750000e-06	3.764320e-06	1.821233e-09	2.668427e+01	1.203507e+02
2.760000e-06	3.796707e-06	1.834482e-09	2.691386e+01	1.214218e+02
2.770000e-06	3.828888e-06	1.849332e-09	2.714198e+01	1.224502e+02
2.780000e-06	3.860861e-06	1.865740e-09	2.736863e+01	1.234374e+02
2.790000e-06	3.892705e-06	1.884440e-09	2.759436e+01	1.243848e+02
2.800000e-06	3.924376e-06	1.901546e-09	2.781887e+01	1.252936e+02
2.810000e-06	3.955828e-06	1.912277e-09	2.804183e+01	1.261653e+02
2.820000e-06	3.987072e-06	1.918289e-09	2.826331e+01	1.270012e+02
2.830000e-06	4.018108e-06	1.924283e-09	2.848331e+01	1.278024e+02
2.840000e-06	4.048768e-06	1.933911e-09	2.870065e+01	1.285703e+02
2.850000e-06	4.079041e-06	1.946130e-09	2.891525e+01	1.293061e+02
2.860000e-06	4.108996e-06	1.957019e-09	2.912760e+01	1.300109e+02
2.870000e-06	4.138711e-06	1.966380e-09	2.933824e+01	1.306859e+02
2.880000e-06	4.168319e-06	1.976088e-09	2.954812e+01	1.313322e+02
2.890000e-06	4.197640e-06	1.984034e-09	2.975597e+01	1.319508e+02
2.900000e-06	4.226580e-06	1.989421e-09	2.996111e+01	1.325428e+02
