# Temperatura_=_19.06
# Concentracion g/m^3_=_4090.0
# C_Vs_to_Am_M_A/Vsm_=_65563218390.804596
# pendiente_HvsI_1/m_=_3716.3
# ordenada_HvsI_A/m_=_1297.0
# frecuencia_Hz_=_135082.1063209851

Tiempo_(s)	Campo_(V.s)	Magnetizacion_(V.s)	Campo_(kA/m)	Magnetizacion_(A/m)
0.000000e+00	-5.414030e-06	-1.264488e-09	-3.838161e+01	-8.487525e+01
1.000000e-08	-5.414220e-06	-1.260049e-09	-3.838296e+01	-8.474763e+01
2.000000e-08	-5.414187e-06	-1.256320e-09	-3.838272e+01	-8.462839e+01
3.000000e-08	-5.413909e-06	-1.250146e-09	-3.838075e+01	-8.451830e+01
4.000000e-08	-5.413192e-06	-1.244939e-09	-3.837567e+01	-8.441804e+01
5.000000e-08	-5.411948e-06	-1.246564e-09	-3.836685e+01	-8.432822e+01
6.000000e-08	-5.410214e-06	-1.264494e-09	-3.835456e+01	-8.424937e+01
7.000000e-08	-5.407948e-06	-1.313061e-09	-3.833849e+01	-8.418190e+01
8.000000e-08	-5.405081e-06	-1.316335e-09	-3.831817e+01	-8.412614e+01
9.000000e-08	-5.401657e-06	-1.181256e-09	-3.829389e+01	-8.408232e+01
1.000000e-07	-5.397913e-06	-1.070052e-09	-3.826735e+01	-8.405053e+01
1.100000e-07	-5.393914e-06	-1.212278e-09	-3.823900e+01	-8.403078e+01
1.200000e-07	-5.389584e-06	-1.395914e-09	-3.820830e+01	-8.402297e+01
1.300000e-07	-5.384861e-06	-1.290917e-09	-3.817482e+01	-8.402687e+01
1.400000e-07	-5.379747e-06	-1.063090e-09	-3.813857e+01	-8.404215e+01
1.500000e-07	-5.374428e-06	-1.234642e-09	-3.810086e+01	-8.406837e+01
1.600000e-07	-5.368749e-06	-1.477774e-09	-3.806060e+01	-8.410499e+01
1.700000e-07	-5.362526e-06	-1.326840e-09	-3.801648e+01	-8.415137e+01
1.800000e-07	-5.355891e-06	-9.930039e-10	-3.796944e+01	-8.420675e+01
1.900000e-07	-5.348980e-06	-1.106934e-09	-3.792045e+01	-8.427032e+01
2.000000e-07	-5.341856e-06	-1.387822e-09	-3.786995e+01	-8.434115e+01
2.100000e-07	-5.334380e-06	-1.332034e-09	-3.781694e+01	-8.441825e+01
2.200000e-07	-5.326507e-06	-1.203682e-09	-3.776113e+01	-8.450057e+01
2.300000e-07	-5.318429e-06	-1.340926e-09	-3.770387e+01	-8.458699e+01
2.400000e-07	-5.309886e-06	-1.450650e-09	-3.764330e+01	-8.467635e+01
2.500000e-07	-5.300743e-06	-1.294203e-09	-3.757848e+01	-8.476745e+01
2.600000e-07	-5.291101e-06	-1.268649e-09	-3.751013e+01	-8.485906e+01
2.700000e-07	-5.280977e-06	-1.395760e-09	-3.743836e+01	-8.494993e+01
2.800000e-07	-5.270439e-06	-1.361194e-09	-3.736365e+01	-8.503881e+01
2.900000e-07	-5.259335e-06	-1.220261e-09	-3.728493e+01	-8.512446e+01
3.000000e-07	-5.247831e-06	-1.353219e-09	-3.720338e+01	-8.520564e+01
3.100000e-07	-5.235950e-06	-1.464106e-09	-3.711915e+01	-8.528115e+01
3.200000e-07	-5.223592e-06	-1.316250e-09	-3.703154e+01	-8.534983e+01
3.300000e-07	-5.210886e-06	-1.208818e-09	-3.694146e+01	-8.541054e+01
3.400000e-07	-5.197805e-06	-1.366850e-09	-3.684873e+01	-8.546223e+01
3.500000e-07	-5.184348e-06	-1.415870e-09	-3.675333e+01	-8.550390e+01
3.600000e-07	-5.170499e-06	-1.328422e-09	-3.665515e+01	-8.553462e+01
3.700000e-07	-5.156071e-06	-1.316943e-09	-3.655286e+01	-8.555354e+01
3.800000e-07	-5.140989e-06	-1.366844e-09	-3.644594e+01	-8.555992e+01
3.900000e-07	-5.125398e-06	-1.330369e-09	-3.633541e+01	-8.555308e+01
4.000000e-07	-5.109475e-06	-1.334644e-09	-3.622253e+01	-8.553246e+01
4.100000e-07	-5.093252e-06	-1.337195e-09	-3.610752e+01	-8.549759e+01
4.200000e-07	-5.076634e-06	-1.276585e-09	-3.598971e+01	-8.544812e+01
4.300000e-07	-5.059579e-06	-1.280909e-09	-3.586880e+01	-8.538379e+01
4.400000e-07	-5.042171e-06	-1.386100e-09	-3.574539e+01	-8.530446e+01
4.500000e-07	-5.024450e-06	-1.378907e-09	-3.561976e+01	-8.521009e+01
4.600000e-07	-5.006409e-06	-1.274876e-09	-3.549186e+01	-8.510074e+01
4.700000e-07	-4.988062e-06	-1.282169e-09	-3.536180e+01	-8.497660e+01
4.800000e-07	-4.969371e-06	-1.338940e-09	-3.522929e+01	-8.483792e+01
4.900000e-07	-4.950293e-06	-1.318383e-09	-3.509404e+01	-8.468507e+01
5.000000e-07	-4.930881e-06	-1.257707e-09	-3.495643e+01	-8.451852e+01
5.100000e-07	-4.911160e-06	-1.262477e-09	-3.481662e+01	-8.433881e+01
5.200000e-07	-4.891166e-06	-1.304327e-09	-3.467487e+01	-8.414655e+01
5.300000e-07	-4.870943e-06	-1.344037e-09	-3.453151e+01	-8.394244e+01
5.400000e-07	-4.850396e-06	-1.307673e-09	-3.438585e+01	-8.372723e+01
5.500000e-07	-4.829493e-06	-1.260821e-09	-3.423765e+01	-8.350174e+01
5.600000e-07	-4.808374e-06	-1.271521e-09	-3.408794e+01	-8.326681e+01
5.700000e-07	-4.787047e-06	-1.318321e-09	-3.393674e+01	-8.302334e+01
5.800000e-07	-4.765394e-06	-1.287280e-09	-3.378324e+01	-8.277224e+01
5.900000e-07	-4.743354e-06	-1.242115e-09	-3.362699e+01	-8.251446e+01
6.000000e-07	-4.720836e-06	-1.245834e-09	-3.346736e+01	-8.225093e+01
6.100000e-07	-4.697977e-06	-1.291218e-09	-3.330530e+01	-8.198261e+01
6.200000e-07	-4.674852e-06	-1.294780e-09	-3.314136e+01	-8.171043e+01
6.300000e-07	-4.651364e-06	-1.260375e-09	-3.297485e+01	-8.143530e+01
6.400000e-07	-4.627590e-06	-1.230150e-09	-3.280631e+01	-8.115811e+01
6.500000e-07	-4.603633e-06	-1.260925e-09	-3.263647e+01	-8.087972e+01
6.600000e-07	-4.579435e-06	-1.287097e-09	-3.246492e+01	-8.060094e+01
6.700000e-07	-4.554949e-06	-1.257703e-09	-3.229134e+01	-8.032252e+01
6.800000e-07	-4.529996e-06	-1.214495e-09	-3.211443e+01	-8.004518e+01
6.900000e-07	-4.504588e-06	-1.231954e-09	-3.193431e+01	-7.976955e+01
7.000000e-07	-4.478817e-06	-1.262535e-09	-3.175161e+01	-7.949622e+01
7.100000e-07	-4.452572e-06	-1.248020e-09	-3.156556e+01	-7.922570e+01
7.200000e-07	-4.425864e-06	-1.215139e-09	-3.137622e+01	-7.895842e+01
7.300000e-07	-4.398755e-06	-1.221050e-09	-3.118403e+01	-7.869474e+01
7.400000e-07	-4.371327e-06	-1.250225e-09	-3.098959e+01	-7.843495e+01
7.500000e-07	-4.343648e-06	-1.246990e-09	-3.079336e+01	-7.817925e+01
7.600000e-07	-4.315682e-06	-1.213465e-09	-3.059510e+01	-7.792779e+01
7.700000e-07	-4.287428e-06	-1.197674e-09	-3.039480e+01	-7.768061e+01
7.800000e-07	-4.258955e-06	-1.219955e-09	-3.019295e+01	-7.743769e+01
7.900000e-07	-4.230307e-06	-1.227273e-09	-2.998985e+01	-7.719896e+01
8.000000e-07	-4.201429e-06	-1.206785e-09	-2.978513e+01	-7.696426e+01
8.100000e-07	-4.172185e-06	-1.190194e-09	-2.957781e+01	-7.673337e+01
8.200000e-07	-4.142615e-06	-1.205090e-09	-2.936818e+01	-7.650602e+01
8.300000e-07	-4.112752e-06	-1.216362e-09	-2.915648e+01	-7.628187e+01
8.400000e-07	-4.082591e-06	-1.202944e-09	-2.894266e+01	-7.606057e+01
8.500000e-07	-4.052146e-06	-1.175701e-09	-2.872682e+01	-7.584167e+01
8.600000e-07	-4.021547e-06	-1.176176e-09	-2.850990e+01	-7.562475e+01
8.700000e-07	-3.990692e-06	-1.190119e-09	-2.829116e+01	-7.540931e+01
8.800000e-07	-3.959542e-06	-1.188989e-09	-2.807033e+01	-7.519486e+01
8.900000e-07	-3.928201e-06	-1.164680e-09	-2.784814e+01	-7.498089e+01
9.000000e-07	-3.896639e-06	-1.161048e-09	-2.762439e+01	-7.476686e+01
9.100000e-07	-3.864803e-06	-1.175768e-09	-2.739869e+01	-7.455225e+01
9.200000e-07	-3.832703e-06	-1.181178e-09	-2.717113e+01	-7.433655e+01
9.300000e-07	-3.800483e-06	-1.160123e-09	-2.694271e+01	-7.411925e+01
9.400000e-07	-3.768063e-06	-1.147800e-09	-2.671288e+01	-7.389984e+01
9.500000e-07	-3.735314e-06	-1.157025e-09	-2.648071e+01	-7.367787e+01
9.600000e-07	-3.702159e-06	-1.168202e-09	-2.624566e+01	-7.345289e+01
9.700000e-07	-3.668607e-06	-1.154163e-09	-2.600780e+01	-7.322450e+01
9.800000e-07	-3.634689e-06	-1.137320e-09	-2.576735e+01	-7.299232e+01
9.900000e-07	-3.600393e-06	-1.138755e-09	-2.552422e+01	-7.275601e+01
1.000000e-06	-3.565716e-06	-1.147690e-09	-2.527838e+01	-7.251528e+01
1.010000e-06	-3.530672e-06	-1.141169e-09	-2.502995e+01	-7.226990e+01
1.020000e-06	-3.495265e-06	-1.126442e-09	-2.477894e+01	-7.201965e+01
1.030000e-06	-3.459631e-06	-1.123191e-09	-2.452631e+01	-7.176438e+01
1.040000e-06	-3.423834e-06	-1.130122e-09	-2.427254e+01	-7.150399e+01
1.050000e-06	-3.387847e-06	-1.126230e-09	-2.401742e+01	-7.123841e+01
1.060000e-06	-3.351711e-06	-1.107713e-09	-2.376124e+01	-7.096764e+01
1.070000e-06	-3.315387e-06	-1.096978e-09	-2.350373e+01	-7.069169e+01
1.080000e-06	-3.278902e-06	-1.099053e-09	-2.324507e+01	-7.041064e+01
1.090000e-06	-3.242286e-06	-1.100407e-09	-2.298550e+01	-7.012461e+01
1.100000e-06	-3.205395e-06	-1.089243e-09	-2.272396e+01	-6.983373e+01
1.110000e-06	-3.168231e-06	-1.079847e-09	-2.246050e+01	-6.953818e+01
1.120000e-06	-3.130857e-06	-1.079552e-09	-2.219554e+01	-6.923818e+01
1.130000e-06	-3.093246e-06	-1.081449e-09	-2.192890e+01	-6.893395e+01
1.140000e-06	-3.055469e-06	-1.069412e-09	-2.166109e+01	-6.862575e+01
1.150000e-06	-3.017522e-06	-1.056012e-09	-2.139208e+01	-6.831384e+01
1.160000e-06	-2.979336e-06	-1.051667e-09	-2.112136e+01	-6.799850e+01
1.170000e-06	-2.940817e-06	-1.055264e-09	-2.084829e+01	-6.768001e+01
1.180000e-06	-2.902065e-06	-1.048605e-09	-2.057357e+01	-6.735865e+01
1.190000e-06	-2.863182e-06	-1.036415e-09	-2.029791e+01	-6.703471e+01
1.200000e-06	-2.824065e-06	-1.031394e-09	-2.002061e+01	-6.670844e+01
1.210000e-06	-2.784770e-06	-1.035277e-09	-1.974203e+01	-6.638012e+01
1.220000e-06	-2.745395e-06	-1.032279e-09	-1.946289e+01	-6.604997e+01
1.230000e-06	-2.705875e-06	-1.022923e-09	-1.918273e+01	-6.571822e+01
1.240000e-06	-2.666197e-06	-1.014282e-09	-1.890143e+01	-6.538506e+01
1.250000e-06	-2.626356e-06	-1.013112e-09	-1.861899e+01	-6.505065e+01
1.260000e-06	-2.586335e-06	-1.011522e-09	-1.833527e+01	-6.471513e+01
1.270000e-06	-2.546177e-06	-1.004842e-09	-1.805058e+01	-6.437859e+01
1.280000e-06	-2.505997e-06	-9.947910e-10	-1.776573e+01	-6.404110e+01
1.290000e-06	-2.465734e-06	-9.907475e-10	-1.748029e+01	-6.370270e+01
1.300000e-06	-2.425267e-06	-9.878997e-10	-1.719341e+01	-6.336336e+01
1.310000e-06	-2.384534e-06	-9.764436e-10	-1.690464e+01	-6.302305e+01
1.320000e-06	-2.343526e-06	-9.629891e-10	-1.661393e+01	-6.268168e+01
1.330000e-06	-2.302458e-06	-9.578572e-10	-1.632279e+01	-6.233912e+01
1.340000e-06	-2.261186e-06	-9.602950e-10	-1.603020e+01	-6.199521e+01
1.350000e-06	-2.219565e-06	-9.615198e-10	-1.573513e+01	-6.164976e+01
1.360000e-06	-2.177652e-06	-9.579784e-10	-1.543800e+01	-6.130254e+01
1.370000e-06	-2.135374e-06	-9.516567e-10	-1.513827e+01	-6.095328e+01
1.380000e-06	-2.092874e-06	-9.457113e-10	-1.483698e+01	-6.060169e+01
1.390000e-06	-2.050292e-06	-9.379032e-10	-1.453511e+01	-6.024746e+01
1.400000e-06	-2.007469e-06	-9.265025e-10	-1.423152e+01	-5.989025e+01
1.410000e-06	-1.964432e-06	-9.163655e-10	-1.392642e+01	-5.952967e+01
1.420000e-06	-1.921228e-06	-9.130610e-10	-1.362014e+01	-5.916536e+01
1.430000e-06	-1.877799e-06	-9.128502e-10	-1.331225e+01	-5.879692e+01
1.440000e-06	-1.834227e-06	-9.126027e-10	-1.300336e+01	-5.842393e+01
1.450000e-06	-1.790502e-06	-9.089640e-10	-1.269338e+01	-5.804597e+01
1.460000e-06	-1.746621e-06	-9.045163e-10	-1.238230e+01	-5.766262e+01
1.470000e-06	-1.702669e-06	-8.993218e-10	-1.207070e+01	-5.727345e+01
1.480000e-06	-1.658644e-06	-8.918246e-10	-1.175860e+01	-5.687802e+01
1.490000e-06	-1.614590e-06	-8.803614e-10	-1.144629e+01	-5.647592e+01
1.500000e-06	-1.570530e-06	-8.726987e-10	-1.113394e+01	-5.606671e+01
1.510000e-06	-1.526350e-06	-8.683362e-10	-1.082073e+01	-5.564997e+01
1.520000e-06	-1.482020e-06	-8.641482e-10	-1.050646e+01	-5.522530e+01
1.530000e-06	-1.437665e-06	-8.561878e-10	-1.019202e+01	-5.479229e+01
1.540000e-06	-1.393269e-06	-8.458111e-10	-9.877285e+00	-5.435055e+01
1.550000e-06	-1.348808e-06	-8.375971e-10	-9.562084e+00	-5.389969e+01
1.560000e-06	-1.304212e-06	-8.306942e-10	-9.245931e+00	-5.343933e+01
1.570000e-06	-1.259450e-06	-8.211714e-10	-8.928603e+00	-5.296912e+01
1.580000e-06	-1.214669e-06	-8.121556e-10	-8.611137e+00	-5.248869e+01
1.590000e-06	-1.169885e-06	-8.054650e-10	-8.293650e+00	-5.199770e+01
1.600000e-06	-1.125085e-06	-8.014533e-10	-7.976048e+00	-5.149581e+01
1.610000e-06	-1.080145e-06	-7.937814e-10	-7.657455e+00	-5.098267e+01
1.620000e-06	-1.035074e-06	-7.791556e-10	-7.337937e+00	-5.045795e+01
1.630000e-06	-9.898748e-07	-7.619387e-10	-7.017506e+00	-4.992132e+01
1.640000e-06	-9.446020e-07	-7.511812e-10	-6.696554e+00	-4.937244e+01
1.650000e-06	-8.993414e-07	-7.448206e-10	-6.375689e+00	-4.881098e+01
1.660000e-06	-8.539144e-07	-7.361515e-10	-6.053644e+00	-4.823658e+01
1.670000e-06	-8.083737e-07	-7.262536e-10	-5.730792e+00	-4.764889e+01
1.680000e-06	-7.628897e-07	-7.191346e-10	-5.408344e+00	-4.704754e+01
1.690000e-06	-7.173497e-07	-7.135470e-10	-5.085498e+00	-4.643216e+01
1.700000e-06	-6.717527e-07	-7.020336e-10	-4.762247e+00	-4.580234e+01
1.710000e-06	-6.261941e-07	-6.832060e-10	-4.439269e+00	-4.515766e+01
1.720000e-06	-5.806242e-07	-6.685189e-10	-4.116211e+00	-4.449770e+01
1.730000e-06	-5.349260e-07	-6.609045e-10	-3.792243e+00	-4.382199e+01
1.740000e-06	-4.891034e-07	-6.546626e-10	-3.467394e+00	-4.313004e+01
1.750000e-06	-4.432980e-07	-6.471757e-10	-3.142666e+00	-4.242135e+01
1.760000e-06	-3.974924e-07	-6.375712e-10	-2.817938e+00	-4.169539e+01
1.770000e-06	-3.516847e-07	-6.284850e-10	-2.493193e+00	-4.095160e+01
1.780000e-06	-3.058482e-07	-6.150638e-10	-2.168245e+00	-4.018939e+01
1.790000e-06	-2.599094e-07	-5.967497e-10	-1.842572e+00	-3.940817e+01
1.800000e-06	-2.139182e-07	-5.771400e-10	-1.516527e+00	-3.860730e+01
1.810000e-06	-1.679363e-07	-5.623540e-10	-1.190548e+00	-3.778614e+01
1.820000e-06	-1.219229e-07	-5.525341e-10	-8.643462e-01	-3.694402e+01
1.830000e-06	-7.591061e-08	-5.456311e-10	-5.381520e-01	-3.608027e+01
1.840000e-06	-2.998999e-08	-5.376295e-10	-2.126076e-01	-3.519421e+01
1.850000e-06	1.595547e-08	-5.273197e-10	1.131129e-01	-3.428514e+01
1.860000e-06	6.193403e-08	-5.135710e-10	4.390681e-01	-3.335236e+01
1.870000e-06	1.078477e-07	-4.957715e-10	7.645631e-01	-3.239519e+01
1.880000e-06	1.538097e-07	-4.755627e-10	1.090401e+00	-3.141296e+01
1.890000e-06	1.998004e-07	-4.576986e-10	1.416442e+00	-3.040500e+01
1.900000e-06	2.457226e-07	-4.415460e-10	1.741998e+00	-2.937067e+01
1.910000e-06	2.916238e-07	-4.269178e-10	2.067404e+00	-2.830938e+01
1.920000e-06	3.374679e-07	-4.126889e-10	2.392407e+00	-2.722054e+01
1.930000e-06	3.832670e-07	-3.973118e-10	2.717089e+00	-2.610363e+01
1.940000e-06	4.290317e-07	-3.793813e-10	3.041528e+00	-2.495817e+01
1.950000e-06	4.747060e-07	-3.589859e-10	3.365327e+00	-2.378376e+01
1.960000e-06	5.203745e-07	-3.379856e-10	3.689084e+00	-2.258004e+01
1.970000e-06	5.660810e-07	-3.166378e-10	4.013110e+00	-2.134673e+01
1.980000e-06	6.118184e-07	-2.947828e-10	4.337355e+00	-2.008363e+01
1.990000e-06	6.575611e-07	-2.751514e-10	4.661639e+00	-1.879063e+01
2.000000e-06	7.032072e-07	-2.582390e-10	4.985237e+00	-1.746770e+01
2.010000e-06	7.487183e-07	-2.400647e-10	5.307878e+00	-1.611493e+01
2.020000e-06	7.941354e-07	-2.172518e-10	5.629853e+00	-1.473248e+01
2.030000e-06	8.394567e-07	-1.914764e-10	5.951149e+00	-1.332065e+01
2.040000e-06	8.847820e-07	-1.673168e-10	6.272472e+00	-1.187983e+01
2.050000e-06	9.301095e-07	-1.450587e-10	6.593812e+00	-1.041052e+01
2.060000e-06	9.753046e-07	-1.225952e-10	6.914213e+00	-8.913343e+00
2.070000e-06	1.020416e-06	-9.900910e-11	7.234018e+00	-7.389049e+00
2.080000e-06	1.065500e-06	-7.521202e-11	7.553631e+00	-5.838490e+00
2.090000e-06	1.110476e-06	-5.117503e-11	7.872485e+00	-4.262642e+00
2.100000e-06	1.155365e-06	-2.632387e-11	8.190716e+00	-2.662595e+00
2.110000e-06	1.200174e-06	-1.394332e-12	8.508377e+00	-1.039554e+00
2.120000e-06	1.244823e-06	2.274334e-11	8.824905e+00	6.051641e-01
2.130000e-06	1.289414e-06	4.608448e-11	9.141022e+00	2.270137e+00
2.140000e-06	1.333945e-06	6.779140e-11	9.456718e+00	3.953839e+00
2.150000e-06	1.378325e-06	9.190948e-11	9.771340e+00	5.654647e+00
2.160000e-06	1.422579e-06	1.195858e-10	1.008507e+01	7.370848e+00
2.170000e-06	1.466817e-06	1.506198e-10	1.039868e+01	9.100646e+00
2.180000e-06	1.511053e-06	1.800686e-10	1.071228e+01	1.084217e+01
2.190000e-06	1.555150e-06	2.055793e-10	1.102491e+01	1.259348e+01
2.200000e-06	1.599198e-06	2.306664e-10	1.133717e+01	1.435258e+01
2.210000e-06	1.643254e-06	2.556590e-10	1.164950e+01	1.611742e+01
2.220000e-06	1.687243e-06	2.773256e-10	1.196135e+01	1.788592e+01
2.230000e-06	1.731150e-06	2.993488e-10	1.227261e+01	1.965597e+01
2.240000e-06	1.775020e-06	3.291785e-10	1.258363e+01	2.142544e+01
2.250000e-06	1.818811e-06	3.644758e-10	1.289407e+01	2.319218e+01
2.260000e-06	1.862453e-06	3.980541e-10	1.320346e+01	2.495408e+01
2.270000e-06	1.906027e-06	4.302086e-10	1.351237e+01	2.670900e+01
2.280000e-06	1.949427e-06	4.605583e-10	1.382004e+01	2.845487e+01
2.290000e-06	1.992584e-06	4.863546e-10	1.412600e+01	3.018961e+01
2.300000e-06	2.035644e-06	5.074083e-10	1.443127e+01	3.191122e+01
2.310000e-06	2.078523e-06	5.246217e-10	1.473525e+01	3.361775e+01
2.320000e-06	2.121096e-06	5.463314e-10	1.503706e+01	3.530730e+01
2.330000e-06	2.163335e-06	5.753708e-10	1.533650e+01	3.697805e+01
2.340000e-06	2.205245e-06	6.059588e-10	1.563361e+01	3.862827e+01
2.350000e-06	2.246909e-06	6.338501e-10	1.592898e+01	4.025631e+01
2.360000e-06	2.288366e-06	6.614062e-10	1.622288e+01	4.186063e+01
2.370000e-06	2.329512e-06	6.908807e-10	1.651458e+01	4.343976e+01
2.380000e-06	2.370331e-06	7.167579e-10	1.680395e+01	4.499238e+01
2.390000e-06	2.410962e-06	7.345355e-10	1.709200e+01	4.651724e+01
2.400000e-06	2.451401e-06	7.477976e-10	1.737868e+01	4.801322e+01
2.410000e-06	2.491696e-06	7.651326e-10	1.766435e+01	4.947933e+01
2.420000e-06	2.531917e-06	7.896747e-10	1.794948e+01	5.091467e+01
2.430000e-06	2.572016e-06	8.182203e-10	1.823376e+01	5.231848e+01
2.440000e-06	2.611979e-06	8.469966e-10	1.851707e+01	5.369012e+01
2.450000e-06	2.651859e-06	8.730192e-10	1.879979e+01	5.502904e+01
2.460000e-06	2.691607e-06	8.968284e-10	1.908157e+01	5.633482e+01
2.470000e-06	2.731188e-06	9.161036e-10	1.936217e+01	5.760716e+01
2.480000e-06	2.770625e-06	9.283064e-10	1.964176e+01	5.884586e+01
2.490000e-06	2.809887e-06	9.402175e-10	1.992009e+01	6.005081e+01
2.500000e-06	2.848960e-06	9.586022e-10	2.019709e+01	6.122203e+01
2.510000e-06	2.887758e-06	9.830998e-10	2.047214e+01	6.235959e+01
2.520000e-06	2.926277e-06	1.009057e-09	2.074522e+01	6.346368e+01
2.530000e-06	2.964586e-06	1.033529e-09	2.101680e+01	6.453455e+01
2.540000e-06	3.002804e-06	1.053249e-09	2.128773e+01	6.557253e+01
2.550000e-06	3.040929e-06	1.063168e-09	2.155802e+01	6.657803e+01
2.560000e-06	3.078800e-06	1.066451e-09	2.182649e+01	6.755149e+01
2.570000e-06	3.116397e-06	1.072292e-09	2.209303e+01	6.849342e+01
2.580000e-06	3.153723e-06	1.085177e-09	2.235764e+01	6.940437e+01
2.590000e-06	3.190805e-06	1.102305e-09	2.262053e+01	7.028491e+01
2.600000e-06	3.227703e-06	1.119698e-09	2.288211e+01	7.113567e+01
2.610000e-06	3.264417e-06	1.137799e-09	2.314239e+01	7.195728e+01
2.620000e-06	3.300897e-06	1.154453e-09	2.340100e+01	7.275038e+01
2.630000e-06	3.337138e-06	1.165608e-09	2.365793e+01	7.351564e+01
2.640000e-06	3.373242e-06	1.170534e-09	2.391388e+01	7.425372e+01
2.650000e-06	3.409265e-06	1.172856e-09	2.416926e+01	7.496527e+01
2.660000e-06	3.445186e-06	1.177797e-09	2.442391e+01	7.565094e+01
2.670000e-06	3.481012e-06	1.185305e-09	2.467789e+01	7.631139e+01
2.680000e-06	3.516617e-06	1.193948e-09	2.493030e+01	7.694722e+01
2.690000e-06	3.551948e-06	1.205077e-09	2.518078e+01	7.755904e+01
2.700000e-06	3.586989e-06	1.218924e-09	2.542919e+01	7.814745e+01
2.710000e-06	3.621476e-06	1.231865e-09	2.567368e+01	7.871300e+01
2.720000e-06	3.655418e-06	1.239724e-09	2.591431e+01	7.925622e+01
2.730000e-06	3.688925e-06	1.241780e-09	2.615184e+01	7.977764e+01
2.740000e-06	3.722062e-06	1.246090e-09	2.638676e+01	8.027775e+01
2.750000e-06	3.754897e-06	1.252974e-09	2.661954e+01	8.075700e+01
2.760000e-06	3.787456e-06	1.257779e-09	2.685036e+01	8.121583e+01
2.770000e-06	3.819763e-06	1.261918e-09	2.707939e+01	8.165468e+01
2.780000e-06	3.851879e-06	1.268886e-09	2.730708e+01	8.207395e+01
2.790000e-06	3.883876e-06	1.279757e-09	2.753391e+01	8.247401e+01
2.800000e-06	3.915633e-06	1.286732e-09	2.775905e+01	8.285525e+01
2.810000e-06	3.947181e-06	1.286445e-09	2.798270e+01	8.321802e+01
2.820000e-06	3.978485e-06	1.285371e-09	2.820462e+01	8.356269e+01
2.830000e-06	4.009440e-06	1.290170e-09	2.842407e+01	8.388960e+01
2.840000e-06	4.040129e-06	1.295882e-09	2.864163e+01	8.419911e+01
2.850000e-06	4.070601e-06	1.296727e-09	2.885766e+01	8.449156e+01
2.860000e-06	4.100801e-06	1.297838e-09	2.907175e+01	8.476734e+01
2.870000e-06	4.130622e-06	1.303555e-09	2.928316e+01	8.502680e+01
2.880000e-06	4.160203e-06	1.309046e-09	2.949287e+01	8.527035e+01
2.890000e-06	4.189624e-06	1.307607e-09	2.970144e+01	8.549837e+01
2.900000e-06	4.218727e-06	1.301743e-09	2.990776e+01	8.571130e+01
