# Temperatura_=_7.28
# Concentracion g/m^3_=_4090.0
# C_Vs_to_Am_M_A/Vsm_=_65563218390.804596
# pendiente_HvsI_1/m_=_3716.3
# ordenada_HvsI_A/m_=_1297.0
# frecuencia_Hz_=_135086.60933718475

Tiempo_(s)	Campo_(V.s)	Magnetizacion_(V.s)	Campo_(kA/m)	Magnetizacion_(A/m)
0.000000e+00	-5.410054e-06	-1.348787e-09	-3.838438e+01	-8.927434e+01
1.000000e-08	-5.410137e-06	-1.343330e-09	-3.838496e+01	-8.915452e+01
2.000000e-08	-5.409964e-06	-1.337964e-09	-3.838374e+01	-8.903848e+01
3.000000e-08	-5.409492e-06	-1.331815e-09	-3.838039e+01	-8.892672e+01
4.000000e-08	-5.408579e-06	-1.329465e-09	-3.837391e+01	-8.881968e+01
5.000000e-08	-5.407102e-06	-1.339381e-09	-3.836344e+01	-8.871778e+01
6.000000e-08	-5.405042e-06	-1.358919e-09	-3.834882e+01	-8.862137e+01
7.000000e-08	-5.402411e-06	-1.345758e-09	-3.833015e+01	-8.853078e+01
8.000000e-08	-5.399241e-06	-1.284286e-09	-3.830766e+01	-8.844624e+01
9.000000e-08	-5.395552e-06	-1.288086e-09	-3.828148e+01	-8.836798e+01
1.000000e-07	-5.391457e-06	-1.355744e-09	-3.825243e+01	-8.829613e+01
1.100000e-07	-5.387125e-06	-1.392435e-09	-3.822169e+01	-8.823078e+01
1.200000e-07	-5.382578e-06	-1.306898e-09	-3.818944e+01	-8.817193e+01
1.300000e-07	-5.377735e-06	-1.261992e-09	-3.815508e+01	-8.811955e+01
1.400000e-07	-5.372506e-06	-1.364361e-09	-3.811797e+01	-8.807351e+01
1.500000e-07	-5.366822e-06	-1.404662e-09	-3.807764e+01	-8.803365e+01
1.600000e-07	-5.360827e-06	-1.307773e-09	-3.803511e+01	-8.799973e+01
1.700000e-07	-5.354554e-06	-1.236612e-09	-3.799061e+01	-8.797143e+01
1.800000e-07	-5.347727e-06	-1.297765e-09	-3.794217e+01	-8.794840e+01
1.900000e-07	-5.340463e-06	-1.365633e-09	-3.789063e+01	-8.793021e+01
2.000000e-07	-5.333103e-06	-1.336280e-09	-3.783841e+01	-8.791639e+01
2.100000e-07	-5.325585e-06	-1.318715e-09	-3.778507e+01	-8.790642e+01
2.200000e-07	-5.317667e-06	-1.349195e-09	-3.772889e+01	-8.789972e+01
2.300000e-07	-5.309386e-06	-1.366105e-09	-3.767014e+01	-8.789568e+01
2.400000e-07	-5.300760e-06	-1.343642e-09	-3.760894e+01	-8.789365e+01
2.500000e-07	-5.291499e-06	-1.350547e-09	-3.754323e+01	-8.789295e+01
2.600000e-07	-5.281491e-06	-1.375731e-09	-3.747222e+01	-8.789288e+01
2.700000e-07	-5.270970e-06	-1.370891e-09	-3.739757e+01	-8.789270e+01
2.800000e-07	-5.260008e-06	-1.360050e-09	-3.731980e+01	-8.789170e+01
2.900000e-07	-5.248540e-06	-1.375397e-09	-3.723843e+01	-8.788913e+01
3.000000e-07	-5.236669e-06	-1.367407e-09	-3.715421e+01	-8.788424e+01
3.100000e-07	-5.224461e-06	-1.338214e-09	-3.706759e+01	-8.787631e+01
3.200000e-07	-5.211894e-06	-1.349870e-09	-3.697843e+01	-8.786462e+01
3.300000e-07	-5.198947e-06	-1.370216e-09	-3.688657e+01	-8.784848e+01
3.400000e-07	-5.185630e-06	-1.375604e-09	-3.679209e+01	-8.782720e+01
3.500000e-07	-5.171890e-06	-1.372101e-09	-3.669460e+01	-8.780015e+01
3.600000e-07	-5.157664e-06	-1.382837e-09	-3.659367e+01	-8.776673e+01
3.700000e-07	-5.142981e-06	-1.367233e-09	-3.648949e+01	-8.772638e+01
3.800000e-07	-5.127745e-06	-1.359415e-09	-3.638139e+01	-8.767859e+01
3.900000e-07	-5.111818e-06	-1.355306e-09	-3.626839e+01	-8.762291e+01
4.000000e-07	-5.095555e-06	-1.343346e-09	-3.615301e+01	-8.755891e+01
4.100000e-07	-5.078968e-06	-1.338129e-09	-3.603532e+01	-8.748627e+01
4.200000e-07	-5.061934e-06	-1.355841e-09	-3.591446e+01	-8.740470e+01
4.300000e-07	-5.044724e-06	-1.364688e-09	-3.579236e+01	-8.731398e+01
4.400000e-07	-5.027248e-06	-1.356714e-09	-3.566836e+01	-8.721394e+01
4.500000e-07	-5.009363e-06	-1.345210e-09	-3.554147e+01	-8.710451e+01
4.600000e-07	-4.991095e-06	-1.338863e-09	-3.541186e+01	-8.698566e+01
4.700000e-07	-4.972469e-06	-1.335811e-09	-3.527971e+01	-8.685742e+01
4.800000e-07	-4.953497e-06	-1.330084e-09	-3.514510e+01	-8.671990e+01
4.900000e-07	-4.934218e-06	-1.315112e-09	-3.500832e+01	-8.657327e+01
5.000000e-07	-4.914585e-06	-1.313136e-09	-3.486902e+01	-8.641775e+01
5.100000e-07	-4.894682e-06	-1.324637e-09	-3.472781e+01	-8.625363e+01
5.200000e-07	-4.874592e-06	-1.326129e-09	-3.458527e+01	-8.608123e+01
5.300000e-07	-4.854248e-06	-1.311261e-09	-3.444093e+01	-8.590095e+01
5.400000e-07	-4.833609e-06	-1.306159e-09	-3.429450e+01	-8.571321e+01
5.500000e-07	-4.812593e-06	-1.309059e-09	-3.414539e+01	-8.551848e+01
5.600000e-07	-4.791189e-06	-1.312341e-09	-3.399353e+01	-8.531727e+01
5.700000e-07	-4.769462e-06	-1.309130e-09	-3.383937e+01	-8.511011e+01
5.800000e-07	-4.747390e-06	-1.296391e-09	-3.368277e+01	-8.489757e+01
5.900000e-07	-4.725054e-06	-1.292079e-09	-3.352430e+01	-8.468021e+01
6.000000e-07	-4.702491e-06	-1.300978e-09	-3.336421e+01	-8.445864e+01
6.100000e-07	-4.679562e-06	-1.299535e-09	-3.320153e+01	-8.423344e+01
6.200000e-07	-4.656251e-06	-1.283927e-09	-3.303614e+01	-8.400521e+01
6.300000e-07	-4.632734e-06	-1.282253e-09	-3.286928e+01	-8.377455e+01
6.400000e-07	-4.609013e-06	-1.294764e-09	-3.270099e+01	-8.354204e+01
6.500000e-07	-4.585035e-06	-1.301765e-09	-3.253086e+01	-8.330825e+01
6.600000e-07	-4.560867e-06	-1.293099e-09	-3.235939e+01	-8.307372e+01
6.700000e-07	-4.536342e-06	-1.281547e-09	-3.218539e+01	-8.283898e+01
6.800000e-07	-4.511333e-06	-1.278636e-09	-3.200794e+01	-8.260451e+01
6.900000e-07	-4.485784e-06	-1.279901e-09	-3.182667e+01	-8.237077e+01
7.000000e-07	-4.459729e-06	-1.271013e-09	-3.164181e+01	-8.213818e+01
7.100000e-07	-4.433214e-06	-1.261562e-09	-3.145369e+01	-8.190712e+01
7.200000e-07	-4.406209e-06	-1.265361e-09	-3.126209e+01	-8.167792e+01
7.300000e-07	-4.378805e-06	-1.275440e-09	-3.106766e+01	-8.145087e+01
7.400000e-07	-4.351159e-06	-1.272363e-09	-3.087151e+01	-8.122620e+01
7.500000e-07	-4.323338e-06	-1.260667e-09	-3.067412e+01	-8.100412e+01
7.600000e-07	-4.295325e-06	-1.254832e-09	-3.047536e+01	-8.078476e+01
7.700000e-07	-4.267098e-06	-1.258254e-09	-3.027510e+01	-8.056822e+01
7.800000e-07	-4.238586e-06	-1.254277e-09	-3.007281e+01	-8.035453e+01
7.900000e-07	-4.209751e-06	-1.242336e-09	-2.986822e+01	-8.014370e+01
8.000000e-07	-4.180549e-06	-1.234788e-09	-2.966103e+01	-7.993569e+01
8.100000e-07	-4.151039e-06	-1.240301e-09	-2.945166e+01	-7.973038e+01
8.200000e-07	-4.121356e-06	-1.243565e-09	-2.924105e+01	-7.952765e+01
8.300000e-07	-4.091441e-06	-1.236362e-09	-2.902881e+01	-7.932733e+01
8.400000e-07	-4.061187e-06	-1.227045e-09	-2.881415e+01	-7.912919e+01
8.500000e-07	-4.030674e-06	-1.229561e-09	-2.859767e+01	-7.893300e+01
8.600000e-07	-3.999978e-06	-1.235275e-09	-2.837988e+01	-7.873849e+01
8.700000e-07	-3.968940e-06	-1.231490e-09	-2.815966e+01	-7.854535e+01
8.800000e-07	-3.937639e-06	-1.219794e-09	-2.793758e+01	-7.835327e+01
8.900000e-07	-3.906182e-06	-1.212756e-09	-2.771440e+01	-7.816191e+01
9.000000e-07	-3.874497e-06	-1.212499e-09	-2.748959e+01	-7.797093e+01
9.100000e-07	-3.842648e-06	-1.210606e-09	-2.726362e+01	-7.777995e+01
9.200000e-07	-3.810640e-06	-1.204628e-09	-2.703652e+01	-7.758863e+01
9.300000e-07	-3.778411e-06	-1.203892e-09	-2.680786e+01	-7.739660e+01
9.400000e-07	-3.745846e-06	-1.211617e-09	-2.657681e+01	-7.720351e+01
9.500000e-07	-3.712876e-06	-1.213514e-09	-2.634289e+01	-7.700899e+01
9.600000e-07	-3.679517e-06	-1.206913e-09	-2.610620e+01	-7.681273e+01
9.700000e-07	-3.645678e-06	-1.194936e-09	-2.586611e+01	-7.661438e+01
9.800000e-07	-3.611403e-06	-1.186495e-09	-2.562293e+01	-7.641364e+01
9.900000e-07	-3.576792e-06	-1.178880e-09	-2.537737e+01	-7.621024e+01
1.000000e-06	-3.541832e-06	-1.170851e-09	-2.512933e+01	-7.600390e+01
1.010000e-06	-3.506532e-06	-1.168440e-09	-2.487887e+01	-7.579438e+01
1.020000e-06	-3.470993e-06	-1.174564e-09	-2.462672e+01	-7.558148e+01
1.030000e-06	-3.435311e-06	-1.178631e-09	-2.437356e+01	-7.536501e+01
1.040000e-06	-3.399487e-06	-1.174057e-09	-2.411939e+01	-7.514480e+01
1.050000e-06	-3.363552e-06	-1.162885e-09	-2.386443e+01	-7.492075e+01
1.060000e-06	-3.327404e-06	-1.151928e-09	-2.360796e+01	-7.469273e+01
1.070000e-06	-3.291004e-06	-1.142591e-09	-2.334970e+01	-7.446069e+01
1.080000e-06	-3.254359e-06	-1.134212e-09	-2.308970e+01	-7.422458e+01
1.090000e-06	-3.217442e-06	-1.128640e-09	-2.282778e+01	-7.398439e+01
1.100000e-06	-3.180347e-06	-1.129899e-09	-2.256459e+01	-7.374012e+01
1.110000e-06	-3.143059e-06	-1.133887e-09	-2.230003e+01	-7.349180e+01
1.120000e-06	-3.105501e-06	-1.133078e-09	-2.203355e+01	-7.323949e+01
1.130000e-06	-3.067770e-06	-1.126273e-09	-2.176585e+01	-7.298326e+01
1.140000e-06	-3.029918e-06	-1.117915e-09	-2.149730e+01	-7.272321e+01
1.150000e-06	-2.991857e-06	-1.111868e-09	-2.122725e+01	-7.245942e+01
1.160000e-06	-2.953551e-06	-1.106679e-09	-2.095547e+01	-7.219201e+01
1.170000e-06	-2.914983e-06	-1.099009e-09	-2.068183e+01	-7.192112e+01
1.180000e-06	-2.876170e-06	-1.091673e-09	-2.040645e+01	-7.164686e+01
1.190000e-06	-2.837169e-06	-1.087632e-09	-2.012974e+01	-7.136936e+01
1.200000e-06	-2.798068e-06	-1.089431e-09	-1.985232e+01	-7.108876e+01
1.210000e-06	-2.758801e-06	-1.088639e-09	-1.957372e+01	-7.080519e+01
1.220000e-06	-2.719307e-06	-1.083333e-09	-1.929350e+01	-7.051875e+01
1.230000e-06	-2.679642e-06	-1.076279e-09	-1.901208e+01	-7.022957e+01
1.240000e-06	-2.639901e-06	-1.069465e-09	-1.873012e+01	-6.993774e+01
1.250000e-06	-2.600095e-06	-1.066579e-09	-1.844769e+01	-6.964335e+01
1.260000e-06	-2.560137e-06	-1.065223e-09	-1.816419e+01	-6.934648e+01
1.270000e-06	-2.520090e-06	-1.066054e-09	-1.788006e+01	-6.904718e+01
1.280000e-06	-2.479953e-06	-1.066000e-09	-1.759528e+01	-6.874548e+01
1.290000e-06	-2.439643e-06	-1.060734e-09	-1.730929e+01	-6.844141e+01
1.300000e-06	-2.399165e-06	-1.048488e-09	-1.702210e+01	-6.813495e+01
1.310000e-06	-2.358410e-06	-1.035428e-09	-1.673294e+01	-6.782609e+01
1.320000e-06	-2.317413e-06	-1.027852e-09	-1.644206e+01	-6.751477e+01
1.330000e-06	-2.276194e-06	-1.026605e-09	-1.614961e+01	-6.720092e+01
1.340000e-06	-2.234639e-06	-1.029221e-09	-1.585478e+01	-6.688445e+01
1.350000e-06	-2.192888e-06	-1.034050e-09	-1.555856e+01	-6.656526e+01
1.360000e-06	-2.150883e-06	-1.036024e-09	-1.526053e+01	-6.624320e+01
1.370000e-06	-2.108446e-06	-1.032265e-09	-1.495944e+01	-6.591811e+01
1.380000e-06	-2.065754e-06	-1.020896e-09	-1.465654e+01	-6.558983e+01
1.390000e-06	-2.022851e-06	-1.006527e-09	-1.435215e+01	-6.525816e+01
1.400000e-06	-1.979802e-06	-9.937001e-10	-1.404671e+01	-6.492290e+01
1.410000e-06	-1.936601e-06	-9.855962e-10	-1.374020e+01	-6.458381e+01
1.420000e-06	-1.893135e-06	-9.835022e-10	-1.343181e+01	-6.424067e+01
1.430000e-06	-1.849602e-06	-9.856243e-10	-1.312294e+01	-6.389322e+01
1.440000e-06	-1.806024e-06	-9.872359e-10	-1.281376e+01	-6.354120e+01
1.450000e-06	-1.762354e-06	-9.848921e-10	-1.250392e+01	-6.318434e+01
1.460000e-06	-1.718594e-06	-9.778683e-10	-1.219344e+01	-6.282237e+01
1.470000e-06	-1.674722e-06	-9.676796e-10	-1.188217e+01	-6.245500e+01
1.480000e-06	-1.630769e-06	-9.550054e-10	-1.157032e+01	-6.208195e+01
1.490000e-06	-1.586759e-06	-9.457451e-10	-1.125807e+01	-6.170293e+01
1.500000e-06	-1.542683e-06	-9.425273e-10	-1.094535e+01	-6.131765e+01
1.510000e-06	-1.498473e-06	-9.424450e-10	-1.063168e+01	-6.092580e+01
1.520000e-06	-1.454218e-06	-9.410190e-10	-1.031769e+01	-6.052710e+01
1.530000e-06	-1.409965e-06	-9.357097e-10	-1.000371e+01	-6.012125e+01
1.540000e-06	-1.365503e-06	-9.284708e-10	-9.688256e+00	-5.970796e+01
1.550000e-06	-1.320976e-06	-9.190021e-10	-9.372336e+00	-5.928693e+01
1.560000e-06	-1.276467e-06	-9.061726e-10	-9.056541e+00	-5.885786e+01
1.570000e-06	-1.231819e-06	-8.964742e-10	-8.739764e+00	-5.842045e+01
1.580000e-06	-1.187000e-06	-8.927794e-10	-8.421776e+00	-5.797441e+01
1.590000e-06	-1.142072e-06	-8.892366e-10	-8.103007e+00	-5.751944e+01
1.600000e-06	-1.097036e-06	-8.837494e-10	-7.783482e+00	-5.705521e+01
1.610000e-06	-1.051942e-06	-8.761394e-10	-7.463537e+00	-5.658143e+01
1.620000e-06	-1.006768e-06	-8.683100e-10	-7.143029e+00	-5.609777e+01
1.630000e-06	-9.614418e-07	-8.579600e-10	-6.821438e+00	-5.560390e+01
1.640000e-06	-9.161676e-07	-8.453237e-10	-6.500216e+00	-5.509948e+01
1.650000e-06	-8.708156e-07	-8.355495e-10	-6.178444e+00	-5.458415e+01
1.660000e-06	-8.253291e-07	-8.292099e-10	-5.855717e+00	-5.405755e+01
1.670000e-06	-7.798514e-07	-8.247414e-10	-5.533052e+00	-5.351928e+01
1.680000e-06	-7.343696e-07	-8.212407e-10	-5.210358e+00	-5.296894e+01
1.690000e-06	-6.888539e-07	-8.126819e-10	-4.887424e+00	-5.240611e+01
1.700000e-06	-6.432743e-07	-7.985340e-10	-4.564036e+00	-5.183033e+01
1.710000e-06	-5.977049e-07	-7.845687e-10	-4.240721e+00	-5.124112e+01
1.720000e-06	-5.520740e-07	-7.733870e-10	-3.916969e+00	-5.063798e+01
1.730000e-06	-5.063744e-07	-7.636015e-10	-3.592731e+00	-5.002038e+01
1.740000e-06	-4.606463e-07	-7.547545e-10	-3.268289e+00	-4.938777e+01
1.750000e-06	-4.148689e-07	-7.478743e-10	-2.943498e+00	-4.873955e+01
1.760000e-06	-3.690889e-07	-7.412826e-10	-2.618689e+00	-4.807511e+01
1.770000e-06	-3.232992e-07	-7.291318e-10	-2.293810e+00	-4.739380e+01
1.780000e-06	-2.774603e-07	-7.138819e-10	-1.968583e+00	-4.669495e+01
1.790000e-06	-2.314975e-07	-7.002372e-10	-1.642477e+00	-4.597784e+01
1.800000e-06	-1.855417e-07	-6.881505e-10	-1.316420e+00	-4.524176e+01
1.810000e-06	-1.397254e-07	-6.741563e-10	-9.913531e-01	-4.448593e+01
1.820000e-06	-9.391056e-08	-6.606005e-10	-6.662962e-01	-4.370960e+01
1.830000e-06	-4.800479e-08	-6.505981e-10	-3.405944e-01	-4.291195e+01
1.840000e-06	-2.004743e-09	-6.405692e-10	-1.422367e-02	-4.209217e+01
1.850000e-06	4.397837e-08	-6.272421e-10	3.120269e-01	-4.124945e+01
1.860000e-06	8.983439e-08	-6.111933e-10	6.373758e-01	-4.038294e+01
1.870000e-06	1.356277e-07	-5.981609e-10	9.622796e-01	-3.949180e+01
1.880000e-06	1.814763e-07	-5.885914e-10	1.287576e+00	-3.857521e+01
1.890000e-06	2.273761e-07	-5.760844e-10	1.613235e+00	-3.763232e+01
1.900000e-06	2.731630e-07	-5.575707e-10	1.938094e+00	-3.666234e+01
1.910000e-06	3.189523e-07	-5.365018e-10	2.262970e+00	-3.566445e+01
1.920000e-06	3.648375e-07	-5.174892e-10	2.588525e+00	-3.463789e+01
1.930000e-06	4.106180e-07	-4.996781e-10	2.913338e+00	-3.358193e+01
1.940000e-06	4.562708e-07	-4.806297e-10	3.237245e+00	-3.249586e+01
1.950000e-06	5.019324e-07	-4.639229e-10	3.561214e+00	-3.137902e+01
1.960000e-06	5.475278e-07	-4.516565e-10	3.884715e+00	-3.023083e+01
1.970000e-06	5.931852e-07	-4.378799e-10	4.208654e+00	-2.905074e+01
1.980000e-06	6.388670e-07	-4.165532e-10	4.532767e+00	-2.783828e+01
1.990000e-06	6.844047e-07	-3.920568e-10	4.855857e+00	-2.659306e+01
2.000000e-06	7.299233e-07	-3.694823e-10	5.178811e+00	-2.531474e+01
2.010000e-06	7.754586e-07	-3.499161e-10	5.501885e+00	-2.400311e+01
2.020000e-06	8.208853e-07	-3.309476e-10	5.824188e+00	-2.265802e+01
2.030000e-06	8.660796e-07	-3.110831e-10	6.144842e+00	-2.127943e+01
2.040000e-06	9.112136e-07	-2.907386e-10	6.465068e+00	-1.986740e+01
2.050000e-06	9.564152e-07	-2.702518e-10	6.785774e+00	-1.842210e+01
2.060000e-06	1.001554e-06	-2.479327e-10	7.106031e+00	-1.694380e+01
2.070000e-06	1.046560e-06	-2.226438e-10	7.425350e+00	-1.543290e+01
2.080000e-06	1.091439e-06	-1.966231e-10	7.743770e+00	-1.388991e+01
2.090000e-06	1.136191e-06	-1.726379e-10	8.061287e+00	-1.231546e+01
2.100000e-06	1.180872e-06	-1.518838e-10	8.378293e+00	-1.071029e+01
2.110000e-06	1.225555e-06	-1.295906e-10	8.695322e+00	-9.075273e+00
2.120000e-06	1.270075e-06	-1.051255e-10	9.011191e+00	-7.411389e+00
2.130000e-06	1.314475e-06	-8.288119e-11	9.326209e+00	-5.719746e+00
2.140000e-06	1.358901e-06	-6.105681e-11	9.641413e+00	-4.001564e+00
2.150000e-06	1.403238e-06	-3.561891e-11	9.955985e+00	-2.258177e+00
2.160000e-06	1.447549e-06	-8.713529e-12	1.027037e+01	-4.910275e-01
2.170000e-06	1.491795e-06	1.841201e-11	1.058430e+01	1.298336e+00
2.180000e-06	1.535952e-06	4.522842e-11	1.089759e+01	3.108266e+00
2.190000e-06	1.579989e-06	7.123524e-11	1.121003e+01	4.937020e+00
2.200000e-06	1.623940e-06	9.773301e-11	1.152187e+01	6.782768e+00
2.210000e-06	1.667863e-06	1.244613e-10	1.183350e+01	8.643602e+00
2.220000e-06	1.711675e-06	1.518416e-10	1.214435e+01	1.051754e+01
2.230000e-06	1.755431e-06	1.829182e-10	1.245480e+01	1.240253e+01
2.240000e-06	1.799166e-06	2.170743e-10	1.276510e+01	1.429648e+01
2.250000e-06	1.842807e-06	2.485171e-10	1.307473e+01	1.619723e+01
2.260000e-06	1.886355e-06	2.770024e-10	1.338370e+01	1.810260e+01
2.270000e-06	1.929753e-06	3.053658e-10	1.369162e+01	2.001038e+01
2.280000e-06	1.973039e-06	3.353044e-10	1.399873e+01	2.191835e+01
2.290000e-06	2.016174e-06	3.654331e-10	1.430477e+01	2.382425e+01
2.300000e-06	2.059030e-06	3.934436e-10	1.460883e+01	2.572586e+01
2.310000e-06	2.101633e-06	4.226211e-10	1.491110e+01	2.762095e+01
2.320000e-06	2.144014e-06	4.551366e-10	1.521180e+01	2.950734e+01
2.330000e-06	2.186177e-06	4.856712e-10	1.551094e+01	3.138284e+01
2.340000e-06	2.227965e-06	5.108628e-10	1.580743e+01	3.324534e+01
2.350000e-06	2.269370e-06	5.347255e-10	1.610120e+01	3.509275e+01
2.360000e-06	2.310570e-06	5.617193e-10	1.639351e+01	3.692307e+01
2.370000e-06	2.351529e-06	5.921383e-10	1.668412e+01	3.873435e+01
2.380000e-06	2.392282e-06	6.223968e-10	1.697326e+01	4.052470e+01
2.390000e-06	2.432803e-06	6.506707e-10	1.726076e+01	4.229234e+01
2.400000e-06	2.473126e-06	6.783956e-10	1.754685e+01	4.403557e+01
2.410000e-06	2.513384e-06	7.051246e-10	1.783248e+01	4.575277e+01
2.420000e-06	2.553476e-06	7.304994e-10	1.811693e+01	4.744242e+01
2.430000e-06	2.593422e-06	7.569969e-10	1.840035e+01	4.910313e+01
2.440000e-06	2.633294e-06	7.837910e-10	1.868325e+01	5.073359e+01
2.450000e-06	2.673075e-06	8.087264e-10	1.896549e+01	5.233261e+01
2.460000e-06	2.712713e-06	8.342971e-10	1.924672e+01	5.389910e+01
2.470000e-06	2.752185e-06	8.578355e-10	1.952678e+01	5.543209e+01
2.480000e-06	2.791525e-06	8.781484e-10	1.980589e+01	5.693074e+01
2.490000e-06	2.830806e-06	8.987765e-10	2.008459e+01	5.839429e+01
2.500000e-06	2.869837e-06	9.211042e-10	2.036152e+01	5.982212e+01
2.510000e-06	2.908507e-06	9.459043e-10	2.063588e+01	6.121371e+01
2.520000e-06	2.946971e-06	9.725982e-10	2.090878e+01	6.256864e+01
2.530000e-06	2.985212e-06	9.988131e-10	2.118010e+01	6.388660e+01
2.540000e-06	3.023253e-06	1.021233e-09	2.145000e+01	6.516740e+01
2.550000e-06	3.061122e-06	1.036998e-09	2.171869e+01	6.641092e+01
2.560000e-06	3.098848e-06	1.051534e-09	2.198635e+01	6.761714e+01
2.570000e-06	3.136395e-06	1.064810e-09	2.225275e+01	6.878615e+01
2.580000e-06	3.173672e-06	1.077125e-09	2.251723e+01	6.991809e+01
2.590000e-06	3.210721e-06	1.088692e-09	2.278009e+01	7.101322e+01
2.600000e-06	3.247607e-06	1.104167e-09	2.304180e+01	7.207182e+01
2.610000e-06	3.284262e-06	1.124511e-09	2.330187e+01	7.309428e+01
2.620000e-06	3.320614e-06	1.144414e-09	2.355978e+01	7.408104e+01
2.630000e-06	3.356749e-06	1.161901e-09	2.381616e+01	7.503258e+01
2.640000e-06	3.392752e-06	1.174518e-09	2.407160e+01	7.594944e+01
2.650000e-06	3.428618e-06	1.183722e-09	2.432607e+01	7.683221e+01
2.660000e-06	3.464353e-06	1.189468e-09	2.457962e+01	7.768150e+01
2.670000e-06	3.499911e-06	1.193153e-09	2.483190e+01	7.849796e+01
2.680000e-06	3.535188e-06	1.197915e-09	2.508219e+01	7.928228e+01
2.690000e-06	3.570209e-06	1.208796e-09	2.533066e+01	8.003514e+01
2.700000e-06	3.604999e-06	1.226790e-09	2.557750e+01	8.075728e+01
2.710000e-06	3.639336e-06	1.247628e-09	2.582112e+01	8.144940e+01
2.720000e-06	3.673065e-06	1.263043e-09	2.606042e+01	8.211225e+01
2.730000e-06	3.706263e-06	1.274383e-09	2.629597e+01	8.274657e+01
2.740000e-06	3.739135e-06	1.282441e-09	2.652919e+01	8.335310e+01
2.750000e-06	3.771700e-06	1.285946e-09	2.676024e+01	8.393258e+01
2.760000e-06	3.803921e-06	1.284041e-09	2.698885e+01	8.448575e+01
2.770000e-06	3.835955e-06	1.282594e-09	2.721613e+01	8.501332e+01
2.780000e-06	3.867841e-06	1.288633e-09	2.744236e+01	8.551603e+01
2.790000e-06	3.899571e-06	1.300340e-09	2.766749e+01	8.599458e+01
2.800000e-06	3.931173e-06	1.310725e-09	2.789170e+01	8.644968e+01
2.810000e-06	3.962565e-06	1.317448e-09	2.811443e+01	8.688202e+01
2.820000e-06	3.993655e-06	1.321659e-09	2.833501e+01	8.729228e+01
2.830000e-06	4.024445e-06	1.325632e-09	2.855347e+01	8.768112e+01
2.840000e-06	4.054846e-06	1.326767e-09	2.876917e+01	8.804920e+01
2.850000e-06	4.084936e-06	1.326815e-09	2.898265e+01	8.839718e+01
2.860000e-06	4.114818e-06	1.328765e-09	2.919467e+01	8.872569e+01
2.870000e-06	4.144439e-06	1.332915e-09	2.940483e+01	8.903536e+01
2.880000e-06	4.173804e-06	1.337283e-09	2.961317e+01	8.932681e+01
2.890000e-06	4.202903e-06	1.340371e-09	2.981963e+01	8.960067e+01
2.900000e-06	4.231772e-06	1.346503e-09	3.002446e+01	8.985754e+01
