# Temperatura_=_5.82
# Concentracion g/m^3_=_4090.0
# C_Vs_to_Am_M_A/Vsm_=_65563218390.804596
# pendiente_HvsI_1/m_=_3716.3
# ordenada_HvsI_A/m_=_1297.0
# frecuencia_Hz_=_135085.61006852935

Tiempo_(s)	Campo_(V.s)	Magnetizacion_(V.s)	Campo_(kA/m)	Magnetizacion_(A/m)
0.000000e+00	-5.414501e-06	-1.412171e-09	-3.837504e+01	-9.172258e+01
1.000000e-08	-5.414721e-06	-1.410400e-09	-3.837660e+01	-9.159487e+01
2.000000e-08	-5.414709e-06	-1.408367e-09	-3.837652e+01	-9.147210e+01
3.000000e-08	-5.414462e-06	-1.403370e-09	-3.837477e+01	-9.135493e+01
4.000000e-08	-5.413885e-06	-1.397924e-09	-3.837068e+01	-9.124396e+01
5.000000e-08	-5.412758e-06	-1.395442e-09	-3.836269e+01	-9.113973e+01
6.000000e-08	-5.411056e-06	-1.398721e-09	-3.835063e+01	-9.104275e+01
7.000000e-08	-5.408820e-06	-1.404186e-09	-3.833478e+01	-9.095346e+01
8.000000e-08	-5.406054e-06	-1.393474e-09	-3.831517e+01	-9.087223e+01
9.000000e-08	-5.402698e-06	-1.389197e-09	-3.829139e+01	-9.079936e+01
1.000000e-07	-5.398791e-06	-1.414764e-09	-3.826370e+01	-9.073507e+01
1.100000e-07	-5.394533e-06	-1.396131e-09	-3.823352e+01	-9.067950e+01
1.200000e-07	-5.390140e-06	-1.348829e-09	-3.820239e+01	-9.063274e+01
1.300000e-07	-5.385647e-06	-1.343057e-09	-3.817054e+01	-9.059474e+01
1.400000e-07	-5.380713e-06	-1.421217e-09	-3.813557e+01	-9.056543e+01
1.500000e-07	-5.375230e-06	-1.435265e-09	-3.809671e+01	-9.054460e+01
1.600000e-07	-5.369445e-06	-1.351500e-09	-3.805571e+01	-9.053200e+01
1.700000e-07	-5.363444e-06	-1.352624e-09	-3.801318e+01	-9.052727e+01
1.800000e-07	-5.356993e-06	-1.391726e-09	-3.796746e+01	-9.052999e+01
1.900000e-07	-5.349926e-06	-1.400156e-09	-3.791737e+01	-9.053965e+01
2.000000e-07	-5.342606e-06	-1.311928e-09	-3.786549e+01	-9.055567e+01
2.100000e-07	-5.335233e-06	-1.342274e-09	-3.781323e+01	-9.057741e+01
2.200000e-07	-5.327585e-06	-1.378053e-09	-3.775903e+01	-9.060417e+01
2.300000e-07	-5.319527e-06	-1.381231e-09	-3.770192e+01	-9.063518e+01
2.400000e-07	-5.311193e-06	-1.350818e-09	-3.764285e+01	-9.066962e+01
2.500000e-07	-5.302518e-06	-1.401509e-09	-3.758137e+01	-9.070665e+01
2.600000e-07	-5.293130e-06	-1.420383e-09	-3.751483e+01	-9.074538e+01
2.700000e-07	-5.282986e-06	-1.381610e-09	-3.744293e+01	-9.078489e+01
2.800000e-07	-5.272341e-06	-1.377842e-09	-3.736749e+01	-9.082424e+01
2.900000e-07	-5.261355e-06	-1.410669e-09	-3.728963e+01	-9.086248e+01
3.000000e-07	-5.249846e-06	-1.378617e-09	-3.720805e+01	-9.089868e+01
3.100000e-07	-5.237895e-06	-1.327453e-09	-3.712336e+01	-9.093188e+01
3.200000e-07	-5.225638e-06	-1.392055e-09	-3.703649e+01	-9.096116e+01
3.300000e-07	-5.212890e-06	-1.432319e-09	-3.694614e+01	-9.098562e+01
3.400000e-07	-5.199719e-06	-1.380320e-09	-3.685279e+01	-9.100438e+01
3.500000e-07	-5.186264e-06	-1.344539e-09	-3.675742e+01	-9.101661e+01
3.600000e-07	-5.172423e-06	-1.416428e-09	-3.665933e+01	-9.102152e+01
3.700000e-07	-5.158136e-06	-1.410567e-09	-3.655806e+01	-9.101838e+01
3.800000e-07	-5.143435e-06	-1.363169e-09	-3.645387e+01	-9.100650e+01
3.900000e-07	-5.127980e-06	-1.352038e-09	-3.634434e+01	-9.098529e+01
4.000000e-07	-5.111879e-06	-1.380884e-09	-3.623022e+01	-9.095419e+01
4.100000e-07	-5.095501e-06	-1.363362e-09	-3.611415e+01	-9.091273e+01
4.200000e-07	-5.078801e-06	-1.379684e-09	-3.599578e+01	-9.086054e+01
4.300000e-07	-5.061761e-06	-1.376627e-09	-3.587501e+01	-9.079730e+01
4.400000e-07	-5.044352e-06	-1.361891e-09	-3.575163e+01	-9.072278e+01
4.500000e-07	-5.026719e-06	-1.358653e-09	-3.562665e+01	-9.063683e+01
4.600000e-07	-5.008881e-06	-1.390776e-09	-3.550023e+01	-9.053941e+01
4.700000e-07	-4.990592e-06	-1.359422e-09	-3.537060e+01	-9.043052e+01
4.800000e-07	-4.971876e-06	-1.329988e-09	-3.523796e+01	-9.031028e+01
4.900000e-07	-4.952810e-06	-1.339051e-09	-3.510283e+01	-9.017887e+01
5.000000e-07	-4.933363e-06	-1.361627e-09	-3.496500e+01	-9.003654e+01
5.100000e-07	-4.913643e-06	-1.340927e-09	-3.482523e+01	-8.988363e+01
5.200000e-07	-4.893747e-06	-1.331614e-09	-3.468422e+01	-8.972053e+01
5.300000e-07	-4.873644e-06	-1.335446e-09	-3.454174e+01	-8.954772e+01
5.400000e-07	-4.853209e-06	-1.349360e-09	-3.439691e+01	-8.936570e+01
5.500000e-07	-4.832440e-06	-1.352828e-09	-3.424971e+01	-8.917506e+01
5.600000e-07	-4.811310e-06	-1.339284e-09	-3.409995e+01	-8.897640e+01
5.700000e-07	-4.789806e-06	-1.322575e-09	-3.394754e+01	-8.877038e+01
5.800000e-07	-4.768046e-06	-1.327513e-09	-3.379332e+01	-8.855768e+01
5.900000e-07	-4.746013e-06	-1.330294e-09	-3.363717e+01	-8.833900e+01
6.000000e-07	-4.723602e-06	-1.311367e-09	-3.347833e+01	-8.811508e+01
6.100000e-07	-4.700822e-06	-1.302960e-09	-3.331688e+01	-8.788663e+01
6.200000e-07	-4.677644e-06	-1.313706e-09	-3.315260e+01	-8.765438e+01
6.300000e-07	-4.654162e-06	-1.329601e-09	-3.298617e+01	-8.741905e+01
6.400000e-07	-4.630449e-06	-1.326328e-09	-3.281811e+01	-8.718135e+01
6.500000e-07	-4.606487e-06	-1.318586e-09	-3.264828e+01	-8.694197e+01
6.600000e-07	-4.582387e-06	-1.304944e-09	-3.247747e+01	-8.670155e+01
6.700000e-07	-4.558024e-06	-1.307833e-09	-3.230480e+01	-8.646073e+01
6.800000e-07	-4.533322e-06	-1.301362e-09	-3.212972e+01	-8.622007e+01
6.900000e-07	-4.508226e-06	-1.288645e-09	-3.195186e+01	-8.598011e+01
7.000000e-07	-4.482475e-06	-1.276453e-09	-3.176935e+01	-8.574135e+01
7.100000e-07	-4.456021e-06	-1.293510e-09	-3.158186e+01	-8.550421e+01
7.200000e-07	-4.429237e-06	-1.302910e-09	-3.139202e+01	-8.526906e+01
7.300000e-07	-4.402130e-06	-1.301760e-09	-3.119991e+01	-8.503622e+01
7.400000e-07	-4.374661e-06	-1.285898e-09	-3.100522e+01	-8.480595e+01
7.500000e-07	-4.346982e-06	-1.284844e-09	-3.080905e+01	-8.457844e+01
7.600000e-07	-4.319107e-06	-1.283109e-09	-3.061149e+01	-8.435381e+01
7.700000e-07	-4.291042e-06	-1.276958e-09	-3.041258e+01	-8.413213e+01
7.800000e-07	-4.262752e-06	-1.259636e-09	-3.021207e+01	-8.391340e+01
7.900000e-07	-4.234210e-06	-1.257509e-09	-3.000978e+01	-8.369758e+01
8.000000e-07	-4.205322e-06	-1.262502e-09	-2.980504e+01	-8.348455e+01
8.100000e-07	-4.176094e-06	-1.266022e-09	-2.959789e+01	-8.327415e+01
8.200000e-07	-4.146527e-06	-1.254820e-09	-2.938833e+01	-8.306616e+01
8.300000e-07	-4.116661e-06	-1.248878e-09	-2.917665e+01	-8.286032e+01
8.400000e-07	-4.086636e-06	-1.248569e-09	-2.896386e+01	-8.265633e+01
8.500000e-07	-4.056466e-06	-1.248100e-09	-2.875003e+01	-8.245384e+01
8.600000e-07	-4.025973e-06	-1.239300e-09	-2.853391e+01	-8.225249e+01
8.700000e-07	-3.995082e-06	-1.230368e-09	-2.831497e+01	-8.205188e+01
8.800000e-07	-3.964025e-06	-1.230069e-09	-2.809486e+01	-8.185159e+01
8.900000e-07	-3.932759e-06	-1.232393e-09	-2.787326e+01	-8.165120e+01
9.000000e-07	-3.901186e-06	-1.226868e-09	-2.764949e+01	-8.145026e+01
9.100000e-07	-3.869419e-06	-1.213933e-09	-2.742434e+01	-8.124833e+01
9.200000e-07	-3.837413e-06	-1.209939e-09	-2.719750e+01	-8.104497e+01
9.300000e-07	-3.805247e-06	-1.213492e-09	-2.696953e+01	-8.083976e+01
9.400000e-07	-3.772828e-06	-1.216862e-09	-2.673975e+01	-8.063228e+01
9.500000e-07	-3.740074e-06	-1.211146e-09	-2.650761e+01	-8.042214e+01
9.600000e-07	-3.707009e-06	-1.211527e-09	-2.627326e+01	-8.020896e+01
9.700000e-07	-3.673379e-06	-1.211595e-09	-2.603492e+01	-7.999240e+01
9.800000e-07	-3.639374e-06	-1.207193e-09	-2.579391e+01	-7.977215e+01
9.900000e-07	-3.604995e-06	-1.191169e-09	-2.555025e+01	-7.954793e+01
1.000000e-06	-3.570053e-06	-1.180546e-09	-2.530260e+01	-7.931950e+01
1.010000e-06	-3.534888e-06	-1.178277e-09	-2.505337e+01	-7.908667e+01
1.020000e-06	-3.499548e-06	-1.183742e-09	-2.480290e+01	-7.884929e+01
1.030000e-06	-3.463944e-06	-1.182520e-09	-2.455056e+01	-7.860722e+01
1.040000e-06	-3.428141e-06	-1.182311e-09	-2.429680e+01	-7.836042e+01
1.050000e-06	-3.392169e-06	-1.180992e-09	-2.404185e+01	-7.810884e+01
1.060000e-06	-3.356068e-06	-1.179316e-09	-2.378599e+01	-7.785250e+01
1.070000e-06	-3.319776e-06	-1.165729e-09	-2.352877e+01	-7.759146e+01
1.080000e-06	-3.283286e-06	-1.150643e-09	-2.327015e+01	-7.732581e+01
1.090000e-06	-3.246556e-06	-1.142465e-09	-2.300983e+01	-7.705567e+01
1.100000e-06	-3.209542e-06	-1.144851e-09	-2.274749e+01	-7.678122e+01
1.110000e-06	-3.172282e-06	-1.145657e-09	-2.248342e+01	-7.650263e+01
1.120000e-06	-3.134789e-06	-1.143284e-09	-2.221769e+01	-7.622014e+01
1.130000e-06	-3.097203e-06	-1.138146e-09	-2.195129e+01	-7.593397e+01
1.140000e-06	-3.059464e-06	-1.135037e-09	-2.168382e+01	-7.564438e+01
1.150000e-06	-3.021445e-06	-1.129970e-09	-2.141436e+01	-7.535165e+01
1.160000e-06	-2.983210e-06	-1.121354e-09	-2.114337e+01	-7.505606e+01
1.170000e-06	-2.944736e-06	-1.112814e-09	-2.087069e+01	-7.475787e+01
1.180000e-06	-2.906120e-06	-1.108334e-09	-2.059700e+01	-7.445738e+01
1.190000e-06	-2.867274e-06	-1.104228e-09	-2.032168e+01	-7.415486e+01
1.200000e-06	-2.828209e-06	-1.096043e-09	-2.004481e+01	-7.385057e+01
1.210000e-06	-2.789012e-06	-1.092261e-09	-1.976700e+01	-7.354476e+01
1.220000e-06	-2.749610e-06	-1.092335e-09	-1.948774e+01	-7.323765e+01
1.230000e-06	-2.709978e-06	-1.090912e-09	-1.920686e+01	-7.292945e+01
1.240000e-06	-2.670182e-06	-1.085064e-09	-1.892480e+01	-7.262034e+01
1.250000e-06	-2.630353e-06	-1.081349e-09	-1.864251e+01	-7.231046e+01
1.260000e-06	-2.590449e-06	-1.077905e-09	-1.835969e+01	-7.199993e+01
1.270000e-06	-2.550474e-06	-1.073983e-09	-1.807638e+01	-7.168882e+01
1.280000e-06	-2.510308e-06	-1.065738e-09	-1.779170e+01	-7.137716e+01
1.290000e-06	-2.469957e-06	-1.058860e-09	-1.750571e+01	-7.106497e+01
1.300000e-06	-2.429453e-06	-1.052822e-09	-1.721864e+01	-7.075219e+01
1.310000e-06	-2.388838e-06	-1.048720e-09	-1.693079e+01	-7.043874e+01
1.320000e-06	-2.348120e-06	-1.040444e-09	-1.664220e+01	-7.012451e+01
1.330000e-06	-2.307125e-06	-1.034149e-09	-1.635165e+01	-6.980933e+01
1.340000e-06	-2.265776e-06	-1.031486e-09	-1.605859e+01	-6.949299e+01
1.350000e-06	-2.224128e-06	-1.032318e-09	-1.576341e+01	-6.917525e+01
1.360000e-06	-2.182220e-06	-1.028518e-09	-1.546639e+01	-6.885585e+01
1.370000e-06	-2.139977e-06	-1.019266e-09	-1.516700e+01	-6.853447e+01
1.380000e-06	-2.097367e-06	-1.009910e-09	-1.486500e+01	-6.821078e+01
1.390000e-06	-2.054509e-06	-1.003675e-09	-1.456124e+01	-6.788439e+01
1.400000e-06	-2.011468e-06	-9.965870e-10	-1.425619e+01	-6.755494e+01
1.410000e-06	-1.968176e-06	-9.882728e-10	-1.394936e+01	-6.722200e+01
1.420000e-06	-1.924802e-06	-9.824052e-10	-1.364195e+01	-6.688515e+01
1.430000e-06	-1.881396e-06	-9.836955e-10	-1.333432e+01	-6.654395e+01
1.440000e-06	-1.837875e-06	-9.846682e-10	-1.302586e+01	-6.619795e+01
1.450000e-06	-1.794214e-06	-9.796623e-10	-1.271641e+01	-6.584670e+01
1.460000e-06	-1.750473e-06	-9.726096e-10	-1.240640e+01	-6.548973e+01
1.470000e-06	-1.706652e-06	-9.665363e-10	-1.209582e+01	-6.512661e+01
1.480000e-06	-1.662647e-06	-9.603624e-10	-1.178394e+01	-6.475688e+01
1.490000e-06	-1.618572e-06	-9.512915e-10	-1.147156e+01	-6.438011e+01
1.500000e-06	-1.574422e-06	-9.423001e-10	-1.115865e+01	-6.399587e+01
1.510000e-06	-1.530226e-06	-9.391341e-10	-1.084541e+01	-6.360376e+01
1.520000e-06	-1.486044e-06	-9.393056e-10	-1.053227e+01	-6.320339e+01
1.530000e-06	-1.441770e-06	-9.328956e-10	-1.021848e+01	-6.279437e+01
1.540000e-06	-1.397390e-06	-9.199629e-10	-9.903941e+00	-6.237636e+01
1.550000e-06	-1.352987e-06	-9.078633e-10	-9.589234e+00	-6.194904e+01
1.560000e-06	-1.308434e-06	-9.002266e-10	-9.273468e+00	-6.151208e+01
1.570000e-06	-1.263844e-06	-8.928655e-10	-8.957442e+00	-6.106520e+01
1.580000e-06	-1.219369e-06	-8.856389e-10	-8.642228e+00	-6.060815e+01
1.590000e-06	-1.174707e-06	-8.798161e-10	-8.325688e+00	-6.014066e+01
1.600000e-06	-1.129788e-06	-8.761656e-10	-8.007324e+00	-5.966252e+01
1.610000e-06	-1.084724e-06	-8.704614e-10	-7.687937e+00	-5.917351e+01
1.620000e-06	-1.039594e-06	-8.621429e-10	-7.368077e+00	-5.867343e+01
1.630000e-06	-9.944117e-07	-8.505289e-10	-7.047850e+00	-5.816210e+01
1.640000e-06	-9.491127e-07	-8.387616e-10	-6.726795e+00	-5.763934e+01
1.650000e-06	-9.037603e-07	-8.282637e-10	-6.405363e+00	-5.710497e+01
1.660000e-06	-8.584432e-07	-8.193733e-10	-6.084179e+00	-5.655882e+01
1.670000e-06	-8.130819e-07	-8.125804e-10	-5.762683e+00	-5.600071e+01
1.680000e-06	-7.676139e-07	-8.102826e-10	-5.440430e+00	-5.543044e+01
1.690000e-06	-7.220408e-07	-8.080017e-10	-5.117433e+00	-5.484781e+01
1.700000e-06	-6.764728e-07	-8.018039e-10	-4.794472e+00	-5.425262e+01
1.710000e-06	-6.308922e-07	-7.911023e-10	-4.471421e+00	-5.364461e+01
1.720000e-06	-5.851938e-07	-7.814274e-10	-4.147536e+00	-5.302352e+01
1.730000e-06	-5.394623e-07	-7.735094e-10	-3.823416e+00	-5.238905e+01
1.740000e-06	-4.937035e-07	-7.638473e-10	-3.499102e+00	-5.174087e+01
1.750000e-06	-4.479619e-07	-7.534946e-10	-3.174911e+00	-5.107862e+01
1.760000e-06	-4.022005e-07	-7.455981e-10	-2.850579e+00	-5.040188e+01
1.770000e-06	-3.563871e-07	-7.364325e-10	-2.525878e+00	-4.971021e+01
1.780000e-06	-3.105600e-07	-7.256945e-10	-2.201081e+00	-4.900311e+01
1.790000e-06	-2.647014e-07	-7.132754e-10	-1.876060e+00	-4.828003e+01
1.800000e-06	-2.188446e-07	-7.008948e-10	-1.551052e+00	-4.754039e+01
1.810000e-06	-1.729600e-07	-6.901117e-10	-1.225846e+00	-4.678354e+01
1.820000e-06	-1.270057e-07	-6.776621e-10	-9.001473e-01	-4.600881e+01
1.830000e-06	-8.109768e-08	-6.655974e-10	-5.747763e-01	-4.521545e+01
1.840000e-06	-3.523466e-08	-6.547215e-10	-2.497241e-01	-4.440271e+01
1.850000e-06	1.060008e-08	-6.463308e-10	7.512762e-02	-4.356975e+01
1.860000e-06	5.643578e-08	-6.374056e-10	3.999861e-01	-4.271572e+01
1.870000e-06	1.023504e-07	-6.282561e-10	7.254040e-01	-4.183974e+01
1.880000e-06	1.481878e-07	-6.165132e-10	1.050275e+00	-4.094088e+01
1.890000e-06	1.939891e-07	-6.019936e-10	1.374890e+00	-4.001821e+01
1.900000e-06	2.399079e-07	-5.826249e-10	1.700337e+00	-3.907077e+01
1.910000e-06	2.858513e-07	-5.597202e-10	2.025959e+00	-3.809759e+01
1.920000e-06	3.317458e-07	-5.390579e-10	2.351234e+00	-3.709769e+01
1.930000e-06	3.775419e-07	-5.240444e-10	2.675812e+00	-3.607012e+01
1.940000e-06	4.232405e-07	-5.093514e-10	2.999699e+00	-3.501392e+01
1.950000e-06	4.690081e-07	-4.938758e-10	3.324075e+00	-3.392815e+01
1.960000e-06	5.147614e-07	-4.785649e-10	3.648350e+00	-3.281193e+01
1.970000e-06	5.604025e-07	-4.630227e-10	3.971829e+00	-3.166439e+01
1.980000e-06	6.060296e-07	-4.422707e-10	4.295209e+00	-3.048473e+01
1.990000e-06	6.516756e-07	-4.165438e-10	4.618722e+00	-2.927219e+01
2.000000e-06	6.972729e-07	-3.916045e-10	4.941892e+00	-2.802611e+01
2.010000e-06	7.428190e-07	-3.705838e-10	5.264698e+00	-2.674588e+01
2.020000e-06	7.882491e-07	-3.516362e-10	5.586682e+00	-2.543098e+01
2.030000e-06	8.336026e-07	-3.323174e-10	5.908123e+00	-2.408101e+01
2.040000e-06	8.789577e-07	-3.129102e-10	6.229575e+00	-2.269564e+01
2.050000e-06	9.242059e-07	-2.949088e-10	6.550270e+00	-2.127469e+01
2.060000e-06	9.693665e-07	-2.770657e-10	6.870344e+00	-1.981806e+01
2.070000e-06	1.014551e-06	-2.535160e-10	7.190584e+00	-1.832581e+01
2.080000e-06	1.059627e-06	-2.265192e-10	7.510058e+00	-1.679811e+01
2.090000e-06	1.104610e-06	-1.976573e-10	7.828875e+00	-1.523526e+01
2.100000e-06	1.149504e-06	-1.695884e-10	8.147058e+00	-1.363772e+01
2.110000e-06	1.194277e-06	-1.435236e-10	8.464390e+00	-1.200609e+01
2.120000e-06	1.239020e-06	-1.187392e-10	8.781504e+00	-1.034110e+01
2.130000e-06	1.283614e-06	-9.670186e-11	9.097558e+00	-8.643630e+00
2.140000e-06	1.328096e-06	-7.733466e-11	9.412827e+00	-6.914720e+00
2.150000e-06	1.372491e-06	-5.524377e-11	9.727470e+00	-5.155538e+00
2.160000e-06	1.416780e-06	-2.933236e-11	1.004136e+01	-3.367402e+00
2.170000e-06	1.461004e-06	-1.757115e-14	1.035480e+01	-1.551764e+00
2.180000e-06	1.505168e-06	2.899502e-11	1.066781e+01	2.897857e-01
2.190000e-06	1.549275e-06	5.648087e-11	1.098042e+01	2.155530e+00
2.200000e-06	1.593295e-06	8.401127e-11	1.129241e+01	4.043629e+00
2.210000e-06	1.637251e-06	1.103315e-10	1.160395e+01	5.952128e+00
2.220000e-06	1.681195e-06	1.347883e-10	1.191540e+01	7.878965e+00
2.230000e-06	1.725087e-06	1.616442e-10	1.222648e+01	9.821980e+00
2.240000e-06	1.768904e-06	1.933071e-10	1.253703e+01	1.177893e+01
2.250000e-06	1.812659e-06	2.258301e-10	1.284714e+01	1.374748e+01
2.260000e-06	1.856346e-06	2.559123e-10	1.315678e+01	1.572524e+01
2.270000e-06	1.899887e-06	2.860330e-10	1.346537e+01	1.770977e+01
2.280000e-06	1.943286e-06	3.172393e-10	1.377295e+01	1.969859e+01
2.290000e-06	1.986516e-06	3.480298e-10	1.407935e+01	2.168916e+01
2.300000e-06	2.029490e-06	3.761183e-10	1.438392e+01	2.367895e+01
2.310000e-06	2.072296e-06	4.049216e-10	1.468731e+01	2.566543e+01
2.320000e-06	2.114937e-06	4.360198e-10	1.498953e+01	2.764605e+01
2.330000e-06	2.157369e-06	4.709418e-10	1.529026e+01	2.961830e+01
2.340000e-06	2.199506e-06	5.030319e-10	1.558890e+01	3.157970e+01
2.350000e-06	2.241271e-06	5.274060e-10	1.588491e+01	3.352781e+01
2.360000e-06	2.282699e-06	5.489129e-10	1.617853e+01	3.546025e+01
2.370000e-06	2.323850e-06	5.719275e-10	1.647019e+01	3.737470e+01
2.380000e-06	2.364819e-06	5.996830e-10	1.676055e+01	3.926892e+01
2.390000e-06	2.405523e-06	6.294976e-10	1.704904e+01	4.114076e+01
2.400000e-06	2.445995e-06	6.626731e-10	1.733589e+01	4.298817e+01
2.410000e-06	2.486344e-06	6.982834e-10	1.762186e+01	4.480920e+01
2.420000e-06	2.526540e-06	7.322010e-10	1.790674e+01	4.660200e+01
2.430000e-06	2.566634e-06	7.615960e-10	1.819090e+01	4.836486e+01
2.440000e-06	2.606659e-06	7.859540e-10	1.847459e+01	5.009619e+01
2.450000e-06	2.646523e-06	8.054466e-10	1.875712e+01	5.179451e+01
2.460000e-06	2.686260e-06	8.261879e-10	1.903875e+01	5.345850e+01
2.470000e-06	2.725912e-06	8.495579e-10	1.931978e+01	5.508696e+01
2.480000e-06	2.765359e-06	8.736007e-10	1.959936e+01	5.667882e+01
2.490000e-06	2.804621e-06	8.993912e-10	1.987763e+01	5.823316e+01
2.500000e-06	2.843732e-06	9.274485e-10	2.015483e+01	5.974919e+01
2.510000e-06	2.882572e-06	9.562539e-10	2.043011e+01	6.122626e+01
2.520000e-06	2.921211e-06	9.837843e-10	2.070396e+01	6.266386e+01
2.530000e-06	2.959663e-06	1.006499e-09	2.097648e+01	6.406159e+01
2.540000e-06	2.997869e-06	1.025678e-09	2.124727e+01	6.541920e+01
2.550000e-06	3.035848e-06	1.042509e-09	2.151645e+01	6.673655e+01
2.560000e-06	3.073615e-06	1.056785e-09	2.178411e+01	6.801361e+01
2.570000e-06	3.111211e-06	1.069517e-09	2.205058e+01	6.925048e+01
2.580000e-06	3.148644e-06	1.084535e-09	2.231588e+01	7.044736e+01
2.590000e-06	3.185894e-06	1.103918e-09	2.257989e+01	7.160452e+01
2.600000e-06	3.222919e-06	1.127263e-09	2.284230e+01	7.272236e+01
2.610000e-06	3.259699e-06	1.150262e-09	2.310297e+01	7.380134e+01
2.620000e-06	3.296202e-06	1.170488e-09	2.336169e+01	7.484200e+01
2.630000e-06	3.332499e-06	1.188605e-09	2.361894e+01	7.584495e+01
2.640000e-06	3.368657e-06	1.203730e-09	2.387521e+01	7.681086e+01
2.650000e-06	3.404679e-06	1.213654e-09	2.413052e+01	7.774044e+01
2.660000e-06	3.440564e-06	1.218097e-09	2.438485e+01	7.863446e+01
2.670000e-06	3.476299e-06	1.221418e-09	2.463812e+01	7.949371e+01
2.680000e-06	3.511862e-06	1.229480e-09	2.489017e+01	8.031903e+01
2.690000e-06	3.547180e-06	1.245110e-09	2.514049e+01	8.111126e+01
2.700000e-06	3.582107e-06	1.264799e-09	2.538803e+01	8.187128e+01
2.710000e-06	3.616704e-06	1.284279e-09	2.563323e+01	8.259995e+01
2.720000e-06	3.651040e-06	1.300413e-09	2.587659e+01	8.329815e+01
2.730000e-06	3.684914e-06	1.312944e-09	2.611667e+01	8.396677e+01
2.740000e-06	3.718141e-06	1.321016e-09	2.635216e+01	8.460666e+01
2.750000e-06	3.750888e-06	1.323434e-09	2.658426e+01	8.521870e+01
2.760000e-06	3.783354e-06	1.322088e-09	2.681436e+01	8.580373e+01
2.770000e-06	3.815578e-06	1.325673e-09	2.704274e+01	8.636258e+01
2.780000e-06	3.847623e-06	1.337417e-09	2.726986e+01	8.689606e+01
2.790000e-06	3.879538e-06	1.353563e-09	2.749606e+01	8.740496e+01
2.800000e-06	3.911299e-06	1.365477e-09	2.772116e+01	8.789005e+01
2.810000e-06	3.942896e-06	1.371505e-09	2.794511e+01	8.835208e+01
2.820000e-06	3.974284e-06	1.375889e-09	2.816757e+01	8.879177e+01
2.830000e-06	4.005317e-06	1.378804e-09	2.838751e+01	8.920982e+01
2.840000e-06	4.036004e-06	1.378420e-09	2.860501e+01	8.960692e+01
2.850000e-06	4.066385e-06	1.378239e-09	2.882033e+01	8.998372e+01
2.860000e-06	4.096448e-06	1.382826e-09	2.903340e+01	9.034085e+01
2.870000e-06	4.126278e-06	1.389927e-09	2.924482e+01	9.067895e+01
2.880000e-06	4.155986e-06	1.396329e-09	2.945537e+01	9.099861e+01
2.890000e-06	4.185398e-06	1.400688e-09	2.966383e+01	9.130043e+01
2.900000e-06	4.214474e-06	1.405033e-09	2.986990e+01	9.158499e+01
