# Temperatura_=_13.7
# Concentracion g/m^3_=_4090.0
# C_Vs_to_Am_M_A/Vsm_=_65563218390.804596
# pendiente_HvsI_1/m_=_3716.3
# ordenada_HvsI_A/m_=_1297.0
# frecuencia_Hz_=_135085.898934339

Tiempo_(s)	Campo_(V.s)	Magnetizacion_(V.s)	Campo_(kA/m)	Magnetizacion_(A/m)
0.000000e+00	-5.388901e-06	-1.253209e-09	-3.838155e+01	-8.277984e+01
1.000000e-08	-5.388907e-06	-1.246775e-09	-3.838159e+01	-8.266926e+01
2.000000e-08	-5.388770e-06	-1.238692e-09	-3.838062e+01	-8.257059e+01
3.000000e-08	-5.388364e-06	-1.232137e-09	-3.837772e+01	-8.248464e+01
4.000000e-08	-5.387511e-06	-1.232382e-09	-3.837165e+01	-8.241213e+01
5.000000e-08	-5.386127e-06	-1.237922e-09	-3.836179e+01	-8.235367e+01
6.000000e-08	-5.384176e-06	-1.249381e-09	-3.834789e+01	-8.230976e+01
7.000000e-08	-5.381603e-06	-1.256683e-09	-3.832957e+01	-8.228078e+01
8.000000e-08	-5.378449e-06	-1.238501e-09	-3.830711e+01	-8.226700e+01
9.000000e-08	-5.374694e-06	-1.182787e-09	-3.828036e+01	-8.226854e+01
1.000000e-07	-5.370562e-06	-1.214091e-09	-3.825093e+01	-8.228541e+01
1.100000e-07	-5.366278e-06	-1.305863e-09	-3.822042e+01	-8.231748e+01
1.200000e-07	-5.361781e-06	-1.257878e-09	-3.818840e+01	-8.236449e+01
1.300000e-07	-5.357018e-06	-1.158768e-09	-3.815447e+01	-8.242604e+01
1.400000e-07	-5.351816e-06	-1.202140e-09	-3.811742e+01	-8.250161e+01
1.500000e-07	-5.346138e-06	-1.335200e-09	-3.807698e+01	-8.259054e+01
1.600000e-07	-5.340068e-06	-1.309770e-09	-3.803375e+01	-8.269207e+01
1.700000e-07	-5.333733e-06	-1.102211e-09	-3.798862e+01	-8.280530e+01
1.800000e-07	-5.327077e-06	-1.187210e-09	-3.794122e+01	-8.292924e+01
1.900000e-07	-5.319928e-06	-1.319381e-09	-3.789030e+01	-8.306277e+01
2.000000e-07	-5.312480e-06	-1.329491e-09	-3.783725e+01	-8.320470e+01
2.100000e-07	-5.304864e-06	-1.179853e-09	-3.778301e+01	-8.335376e+01
2.200000e-07	-5.297015e-06	-1.292508e-09	-3.772711e+01	-8.350860e+01
2.300000e-07	-5.288859e-06	-1.392032e-09	-3.766902e+01	-8.366781e+01
2.400000e-07	-5.280277e-06	-1.334508e-09	-3.760789e+01	-8.382993e+01
2.500000e-07	-5.271092e-06	-1.285542e-09	-3.754248e+01	-8.399347e+01
2.600000e-07	-5.261311e-06	-1.394197e-09	-3.747281e+01	-8.415691e+01
2.700000e-07	-5.250938e-06	-1.406997e-09	-3.739893e+01	-8.431875e+01
2.800000e-07	-5.240034e-06	-1.281967e-09	-3.732127e+01	-8.447745e+01
2.900000e-07	-5.228746e-06	-1.298813e-09	-3.724087e+01	-8.463152e+01
3.000000e-07	-5.216983e-06	-1.369369e-09	-3.715710e+01	-8.477949e+01
3.100000e-07	-5.204790e-06	-1.321512e-09	-3.707025e+01	-8.491994e+01
3.200000e-07	-5.192276e-06	-1.241449e-09	-3.698112e+01	-8.505150e+01
3.300000e-07	-5.179365e-06	-1.359118e-09	-3.688917e+01	-8.517287e+01
3.400000e-07	-5.166043e-06	-1.369534e-09	-3.679428e+01	-8.528283e+01
3.500000e-07	-5.152357e-06	-1.309410e-09	-3.669680e+01	-8.538024e+01
3.600000e-07	-5.138290e-06	-1.291271e-09	-3.659662e+01	-8.546409e+01
3.700000e-07	-5.123840e-06	-1.354725e-09	-3.649370e+01	-8.553343e+01
3.800000e-07	-5.108759e-06	-1.275453e-09	-3.638629e+01	-8.558746e+01
3.900000e-07	-5.093036e-06	-1.272171e-09	-3.627430e+01	-8.562550e+01
4.000000e-07	-5.076739e-06	-1.313205e-09	-3.615823e+01	-8.564696e+01
4.100000e-07	-5.060032e-06	-1.313240e-09	-3.603924e+01	-8.565143e+01
4.200000e-07	-5.043089e-06	-1.264586e-09	-3.591856e+01	-8.563858e+01
4.300000e-07	-5.025824e-06	-1.337622e-09	-3.579559e+01	-8.560825e+01
4.400000e-07	-5.008283e-06	-1.334343e-09	-3.567066e+01	-8.556040e+01
4.500000e-07	-4.990436e-06	-1.274136e-09	-3.554355e+01	-8.549511e+01
4.600000e-07	-4.972180e-06	-1.256018e-09	-3.541353e+01	-8.541260e+01
4.700000e-07	-4.953506e-06	-1.302248e-09	-3.528053e+01	-8.531320e+01
4.800000e-07	-4.934461e-06	-1.268991e-09	-3.514488e+01	-8.519738e+01
4.900000e-07	-4.915101e-06	-1.259932e-09	-3.500699e+01	-8.506569e+01
5.000000e-07	-4.895461e-06	-1.273592e-09	-3.486710e+01	-8.491881e+01
5.100000e-07	-4.875551e-06	-1.279373e-09	-3.472530e+01	-8.475750e+01
5.200000e-07	-4.855420e-06	-1.279937e-09	-3.458192e+01	-8.458261e+01
5.300000e-07	-4.835167e-06	-1.291462e-09	-3.443767e+01	-8.439507e+01
5.400000e-07	-4.814609e-06	-1.263981e-09	-3.429125e+01	-8.419588e+01
5.500000e-07	-4.793661e-06	-1.250731e-09	-3.414205e+01	-8.398607e+01
5.600000e-07	-4.772380e-06	-1.277918e-09	-3.399048e+01	-8.376675e+01
5.700000e-07	-4.750779e-06	-1.271175e-09	-3.383663e+01	-8.353902e+01
5.800000e-07	-4.728864e-06	-1.239288e-09	-3.368055e+01	-8.330403e+01
5.900000e-07	-4.706660e-06	-1.235920e-09	-3.352240e+01	-8.306292e+01
6.000000e-07	-4.684137e-06	-1.257938e-09	-3.336199e+01	-8.281684e+01
6.100000e-07	-4.661247e-06	-1.253817e-09	-3.319896e+01	-8.256691e+01
6.200000e-07	-4.638039e-06	-1.251446e-09	-3.303366e+01	-8.231423e+01
6.300000e-07	-4.614522e-06	-1.238642e-09	-3.286617e+01	-8.205985e+01
6.400000e-07	-4.590810e-06	-1.252939e-09	-3.269728e+01	-8.180479e+01
6.500000e-07	-4.566910e-06	-1.260477e-09	-3.252706e+01	-8.155001e+01
6.600000e-07	-4.542745e-06	-1.256036e-09	-3.235494e+01	-8.129638e+01
6.700000e-07	-4.518207e-06	-1.222057e-09	-3.218018e+01	-8.104473e+01
6.800000e-07	-4.493255e-06	-1.223727e-09	-3.200246e+01	-8.079579e+01
6.900000e-07	-4.467880e-06	-1.224618e-09	-3.182173e+01	-8.055021e+01
7.000000e-07	-4.442061e-06	-1.227427e-09	-3.163784e+01	-8.030855e+01
7.100000e-07	-4.415659e-06	-1.211197e-09	-3.144979e+01	-8.007126e+01
7.200000e-07	-4.388715e-06	-1.221656e-09	-3.125789e+01	-7.983872e+01
7.300000e-07	-4.361436e-06	-1.228021e-09	-3.106360e+01	-7.961120e+01
7.400000e-07	-4.333869e-06	-1.235060e-09	-3.086726e+01	-7.938887e+01
7.500000e-07	-4.306120e-06	-1.211913e-09	-3.066963e+01	-7.917179e+01
7.600000e-07	-4.278230e-06	-1.200569e-09	-3.047098e+01	-7.895996e+01
7.700000e-07	-4.250095e-06	-1.199908e-09	-3.027059e+01	-7.875326e+01
7.800000e-07	-4.221662e-06	-1.208322e-09	-3.006808e+01	-7.855148e+01
7.900000e-07	-4.192966e-06	-1.196791e-09	-2.986370e+01	-7.835435e+01
8.000000e-07	-4.163998e-06	-1.192136e-09	-2.965738e+01	-7.816150e+01
8.100000e-07	-4.134639e-06	-1.194329e-09	-2.944828e+01	-7.797251e+01
8.200000e-07	-4.104977e-06	-1.200104e-09	-2.923702e+01	-7.778688e+01
8.300000e-07	-4.075159e-06	-1.192661e-09	-2.902464e+01	-7.760405e+01
8.400000e-07	-4.045064e-06	-1.179750e-09	-2.881030e+01	-7.742344e+01
8.500000e-07	-4.014604e-06	-1.176266e-09	-2.859335e+01	-7.724441e+01
8.600000e-07	-3.983903e-06	-1.180950e-09	-2.837468e+01	-7.706630e+01
8.700000e-07	-3.952945e-06	-1.179825e-09	-2.815419e+01	-7.688841e+01
8.800000e-07	-3.921736e-06	-1.167394e-09	-2.793191e+01	-7.671007e+01
8.900000e-07	-3.890321e-06	-1.162480e-09	-2.770816e+01	-7.653055e+01
9.000000e-07	-3.858676e-06	-1.161245e-09	-2.748278e+01	-7.634919e+01
9.100000e-07	-3.826882e-06	-1.162821e-09	-2.725633e+01	-7.616529e+01
9.200000e-07	-3.794861e-06	-1.152666e-09	-2.702827e+01	-7.597822e+01
9.300000e-07	-3.762598e-06	-1.151151e-09	-2.679848e+01	-7.578734e+01
9.400000e-07	-3.730207e-06	-1.156050e-09	-2.656778e+01	-7.559208e+01
9.500000e-07	-3.697590e-06	-1.164744e-09	-2.633547e+01	-7.539189e+01
9.600000e-07	-3.664472e-06	-1.156345e-09	-2.609959e+01	-7.518630e+01
9.700000e-07	-3.630929e-06	-1.146649e-09	-2.586069e+01	-7.497487e+01
9.800000e-07	-3.597055e-06	-1.135131e-09	-2.561942e+01	-7.475724e+01
9.900000e-07	-3.562700e-06	-1.132549e-09	-2.537474e+01	-7.453308e+01
1.000000e-06	-3.527933e-06	-1.122880e-09	-2.512711e+01	-7.430217e+01
1.010000e-06	-3.492861e-06	-1.122222e-09	-2.487732e+01	-7.406432e+01
1.020000e-06	-3.457460e-06	-1.124516e-09	-2.462518e+01	-7.381944e+01
1.030000e-06	-3.421795e-06	-1.134361e-09	-2.437117e+01	-7.356748e+01
1.040000e-06	-3.385952e-06	-1.131610e-09	-2.411588e+01	-7.330847e+01
1.050000e-06	-3.350056e-06	-1.124120e-09	-2.386021e+01	-7.304251e+01
1.060000e-06	-3.314073e-06	-1.112307e-09	-2.360394e+01	-7.276974e+01
1.070000e-06	-3.277839e-06	-1.105605e-09	-2.334586e+01	-7.249039e+01
1.080000e-06	-3.241403e-06	-1.095385e-09	-2.308635e+01	-7.220471e+01
1.090000e-06	-3.204761e-06	-1.088416e-09	-2.282538e+01	-7.191302e+01
1.100000e-06	-3.167842e-06	-1.086107e-09	-2.256243e+01	-7.161569e+01
1.110000e-06	-3.130682e-06	-1.091571e-09	-2.229776e+01	-7.131310e+01
1.120000e-06	-3.093219e-06	-1.093531e-09	-2.203094e+01	-7.100568e+01
1.130000e-06	-3.055519e-06	-1.088416e-09	-2.176242e+01	-7.069389e+01
1.140000e-06	-3.017692e-06	-1.079924e-09	-2.149301e+01	-7.037820e+01
1.150000e-06	-2.979630e-06	-1.074743e-09	-2.122192e+01	-7.005907e+01
1.160000e-06	-2.941415e-06	-1.071838e-09	-2.094974e+01	-6.973699e+01
1.170000e-06	-2.903057e-06	-1.066198e-09	-2.067654e+01	-6.941244e+01
1.180000e-06	-2.864429e-06	-1.058860e-09	-2.040142e+01	-6.908588e+01
1.190000e-06	-2.825623e-06	-1.052447e-09	-2.012503e+01	-6.875777e+01
1.200000e-06	-2.786631e-06	-1.051909e-09	-1.984732e+01	-6.842851e+01
1.210000e-06	-2.747392e-06	-1.049170e-09	-1.956785e+01	-6.809851e+01
1.220000e-06	-2.707905e-06	-1.047300e-09	-1.928660e+01	-6.776813e+01
1.230000e-06	-2.668212e-06	-1.042777e-09	-1.900390e+01	-6.743767e+01
1.240000e-06	-2.628410e-06	-1.041499e-09	-1.872041e+01	-6.710740e+01
1.250000e-06	-2.588577e-06	-1.037128e-09	-1.843671e+01	-6.677756e+01
1.260000e-06	-2.548702e-06	-1.033602e-09	-1.815271e+01	-6.644830e+01
1.270000e-06	-2.508750e-06	-1.025846e-09	-1.786815e+01	-6.611974e+01
1.280000e-06	-2.468748e-06	-1.020274e-09	-1.758325e+01	-6.579194e+01
1.290000e-06	-2.428576e-06	-1.012625e-09	-1.729713e+01	-6.546489e+01
1.300000e-06	-2.388170e-06	-1.004740e-09	-1.700934e+01	-6.513854e+01
1.310000e-06	-2.347513e-06	-9.962471e-10	-1.671977e+01	-6.481277e+01
1.320000e-06	-2.306675e-06	-9.933691e-10	-1.642891e+01	-6.448741e+01
1.330000e-06	-2.265755e-06	-9.908815e-10	-1.613746e+01	-6.416223e+01
1.340000e-06	-2.224639e-06	-9.911804e-10	-1.584462e+01	-6.383696e+01
1.350000e-06	-2.183180e-06	-9.893502e-10	-1.554934e+01	-6.351127e+01
1.360000e-06	-2.141264e-06	-9.847263e-10	-1.525080e+01	-6.318479e+01
1.370000e-06	-2.099067e-06	-9.728601e-10	-1.495025e+01	-6.285711e+01
1.380000e-06	-2.056772e-06	-9.600218e-10	-1.464902e+01	-6.252777e+01
1.390000e-06	-2.014248e-06	-9.489449e-10	-1.434615e+01	-6.219631e+01
1.400000e-06	-1.971463e-06	-9.406106e-10	-1.404142e+01	-6.186222e+01
1.410000e-06	-1.928498e-06	-9.343190e-10	-1.373540e+01	-6.152497e+01
1.420000e-06	-1.885275e-06	-9.332589e-10	-1.342756e+01	-6.118402e+01
1.430000e-06	-1.841818e-06	-9.346312e-10	-1.311804e+01	-6.083882e+01
1.440000e-06	-1.798240e-06	-9.334397e-10	-1.280766e+01	-6.048881e+01
1.450000e-06	-1.754563e-06	-9.258663e-10	-1.249659e+01	-6.013345e+01
1.460000e-06	-1.710869e-06	-9.147745e-10	-1.218538e+01	-5.977219e+01
1.470000e-06	-1.667059e-06	-9.077489e-10	-1.187335e+01	-5.940448e+01
1.480000e-06	-1.623137e-06	-9.004680e-10	-1.156053e+01	-5.902981e+01
1.490000e-06	-1.579209e-06	-8.923640e-10	-1.124765e+01	-5.864767e+01
1.500000e-06	-1.535236e-06	-8.860182e-10	-1.093447e+01	-5.825758e+01
1.510000e-06	-1.491205e-06	-8.852508e-10	-1.062086e+01	-5.785908e+01
1.520000e-06	-1.447056e-06	-8.832193e-10	-1.030641e+01	-5.745176e+01
1.530000e-06	-1.402823e-06	-8.748927e-10	-9.991375e+00	-5.703521e+01
1.540000e-06	-1.358560e-06	-8.624165e-10	-9.676121e+00	-5.660906e+01
1.550000e-06	-1.314224e-06	-8.527791e-10	-9.360344e+00	-5.617297e+01
1.560000e-06	-1.269820e-06	-8.452485e-10	-9.044080e+00	-5.572665e+01
1.570000e-06	-1.225344e-06	-8.393367e-10	-8.727306e+00	-5.526980e+01
1.580000e-06	-1.180803e-06	-8.315063e-10	-8.410075e+00	-5.480219e+01
1.590000e-06	-1.136211e-06	-8.280274e-10	-8.092476e+00	-5.432359e+01
1.600000e-06	-1.091571e-06	-8.244729e-10	-7.774535e+00	-5.383380e+01
1.610000e-06	-1.046910e-06	-8.155252e-10	-7.456444e+00	-5.333264e+01
1.620000e-06	-1.002143e-06	-8.010670e-10	-7.137596e+00	-5.281995e+01
1.630000e-06	-9.572390e-07	-7.899169e-10	-6.817776e+00	-5.229558e+01
1.640000e-06	-9.122758e-07	-7.848067e-10	-6.497533e+00	-5.175938e+01
1.650000e-06	-8.672265e-07	-7.817511e-10	-6.176676e+00	-5.121121e+01
1.660000e-06	-8.220365e-07	-7.733251e-10	-5.854818e+00	-5.065092e+01
1.670000e-06	-7.767122e-07	-7.657651e-10	-5.532003e+00	-5.007837e+01
1.680000e-06	-7.313632e-07	-7.593313e-10	-5.209012e+00	-4.949338e+01
1.690000e-06	-6.860639e-07	-7.494913e-10	-4.886376e+00	-4.889578e+01
1.700000e-06	-6.406881e-07	-7.356550e-10	-4.563194e+00	-4.828536e+01
1.710000e-06	-5.952089e-07	-7.232535e-10	-4.239276e+00	-4.766187e+01
1.720000e-06	-5.496045e-07	-7.171301e-10	-3.914467e+00	-4.702506e+01
1.730000e-06	-5.039324e-07	-7.143516e-10	-3.589175e+00	-4.637461e+01
1.740000e-06	-4.583277e-07	-7.059825e-10	-3.264363e+00	-4.571019e+01
1.750000e-06	-4.126805e-07	-6.941816e-10	-2.939249e+00	-4.503139e+01
1.760000e-06	-3.669910e-07	-6.834513e-10	-2.613832e+00	-4.433779e+01
1.770000e-06	-3.213314e-07	-6.704024e-10	-2.288629e+00	-4.362889e+01
1.780000e-06	-2.756291e-07	-6.553390e-10	-1.963122e+00	-4.290416e+01
1.790000e-06	-2.298766e-07	-6.401022e-10	-1.637258e+00	-4.216302e+01
1.800000e-06	-1.841502e-07	-6.293754e-10	-1.311579e+00	-4.140483e+01
1.810000e-06	-1.384444e-07	-6.203750e-10	-9.860470e-01	-4.062892e+01
1.820000e-06	-9.266876e-08	-6.090172e-10	-6.600179e-01	-3.983454e+01
1.830000e-06	-4.683077e-08	-5.949283e-10	-3.335444e-01	-3.902093e+01
1.840000e-06	-1.056358e-09	-5.822175e-10	-7.523734e-03	-3.818729e+01
1.850000e-06	4.463742e-08	-5.711712e-10	3.179226e-01	-3.733275e+01
1.860000e-06	9.028247e-08	-5.586263e-10	6.430219e-01	-3.645646e+01
1.870000e-06	1.359671e-07	-5.436187e-10	9.684032e-01	-3.555751e+01
1.880000e-06	1.816070e-07	-5.309536e-10	1.293466e+00	-3.463500e+01
1.890000e-06	2.272383e-07	-5.170768e-10	1.618467e+00	-3.368800e+01
1.900000e-06	2.728971e-07	-4.987247e-10	1.943664e+00	-3.271559e+01
1.910000e-06	3.185251e-07	-4.771229e-10	2.268642e+00	-3.171688e+01
1.920000e-06	3.642292e-07	-4.572866e-10	2.594162e+00	-3.069096e+01
1.930000e-06	4.098756e-07	-4.405639e-10	2.919271e+00	-2.963699e+01
1.940000e-06	4.554441e-07	-4.238345e-10	3.243825e+00	-2.855413e+01
1.950000e-06	5.009945e-07	-4.054463e-10	3.568250e+00	-2.744162e+01
1.960000e-06	5.464754e-07	-3.890000e-10	3.892180e+00	-2.629874e+01
1.970000e-06	5.918852e-07	-3.723812e-10	4.215604e+00	-2.512484e+01
1.980000e-06	6.372810e-07	-3.520334e-10	4.538928e+00	-2.391937e+01
1.990000e-06	6.826126e-07	-3.277847e-10	4.861795e+00	-2.268184e+01
2.000000e-06	7.278378e-07	-3.039158e-10	5.183903e+00	-2.141188e+01
2.010000e-06	7.730714e-07	-2.830602e-10	5.506072e+00	-2.010921e+01
2.020000e-06	8.183058e-07	-2.654366e-10	5.828247e+00	-1.877367e+01
2.030000e-06	8.634535e-07	-2.465486e-10	6.149804e+00	-1.740523e+01
2.040000e-06	9.084852e-07	-2.234392e-10	6.470535e+00	-1.600398e+01
2.050000e-06	9.534445e-07	-1.988105e-10	6.790750e+00	-1.457015e+01
2.060000e-06	9.983738e-07	-1.726788e-10	7.110752e+00	-1.310410e+01
2.070000e-06	1.043170e-06	-1.467854e-10	7.429806e+00	-1.160634e+01
2.080000e-06	1.087747e-06	-1.206199e-10	7.747298e+00	-1.007753e+01
2.090000e-06	1.132202e-06	-9.462422e-11	8.063922e+00	-8.518458e+00
2.100000e-06	1.176662e-06	-7.291615e-11	8.380582e+00	-6.930077e+00
2.110000e-06	1.221080e-06	-5.165574e-11	8.696941e+00	-5.313479e+00
2.120000e-06	1.265469e-06	-2.598811e-11	9.013091e+00	-3.669900e+00
2.130000e-06	1.309797e-06	3.179248e-13	9.328814e+00	-2.000717e+00
2.140000e-06	1.354028e-06	2.467391e-11	9.643842e+00	-3.074445e-01
2.150000e-06	1.398273e-06	4.917109e-11	9.958966e+00	1.408275e+00
2.160000e-06	1.442421e-06	7.442094e-11	1.027340e+01	3.144674e+00
2.170000e-06	1.486418e-06	1.028916e-10	1.058676e+01	4.899870e+00
2.180000e-06	1.530378e-06	1.322151e-10	1.089986e+01	6.671873e+00
2.190000e-06	1.574336e-06	1.602555e-10	1.121295e+01	8.458598e+00
2.200000e-06	1.618264e-06	1.866458e-10	1.152581e+01	1.025787e+01
2.210000e-06	1.662129e-06	2.108716e-10	1.183824e+01	1.206744e+01
2.220000e-06	1.705966e-06	2.345178e-10	1.215046e+01	1.388500e+01
2.230000e-06	1.749728e-06	2.604562e-10	1.246215e+01	1.570819e+01
2.240000e-06	1.793381e-06	2.917132e-10	1.277306e+01	1.753461e+01
2.250000e-06	1.836952e-06	3.239643e-10	1.308338e+01	1.936184e+01
2.260000e-06	1.880398e-06	3.556906e-10	1.339282e+01	2.118745e+01
2.270000e-06	1.923662e-06	3.870722e-10	1.370096e+01	2.300900e+01
2.280000e-06	1.966797e-06	4.162478e-10	1.400818e+01	2.482408e+01
2.290000e-06	2.009710e-06	4.411247e-10	1.431383e+01	2.663032e+01
2.300000e-06	2.052338e-06	4.618269e-10	1.461743e+01	2.842537e+01
2.310000e-06	2.094701e-06	4.831653e-10	1.491916e+01	3.020695e+01
2.320000e-06	2.136680e-06	5.118102e-10	1.521815e+01	3.197285e+01
2.330000e-06	2.178323e-06	5.457206e-10	1.551474e+01	3.372092e+01
2.340000e-06	2.219739e-06	5.772661e-10	1.580972e+01	3.544913e+01
2.350000e-06	2.260935e-06	6.030379e-10	1.610313e+01	3.715553e+01
2.360000e-06	2.302072e-06	6.263789e-10	1.639613e+01	3.883828e+01
2.370000e-06	2.342948e-06	6.492684e-10	1.668725e+01	4.049565e+01
2.380000e-06	2.383376e-06	6.700883e-10	1.697520e+01	4.212607e+01
2.390000e-06	2.423645e-06	6.889792e-10	1.726201e+01	4.372805e+01
2.400000e-06	2.463752e-06	7.101652e-10	1.754766e+01	4.530027e+01
2.410000e-06	2.503737e-06	7.358998e-10	1.783245e+01	4.684153e+01
2.420000e-06	2.543706e-06	7.667552e-10	1.811712e+01	4.835078e+01
2.430000e-06	2.583607e-06	7.981438e-10	1.840131e+01	4.982710e+01
2.440000e-06	2.623403e-06	8.250394e-10	1.868475e+01	5.126972e+01
2.450000e-06	2.663098e-06	8.451624e-10	1.896747e+01	5.267801e+01
2.460000e-06	2.702718e-06	8.616043e-10	1.924966e+01	5.405147e+01
2.470000e-06	2.742141e-06	8.742009e-10	1.953044e+01	5.538973e+01
2.480000e-06	2.781229e-06	8.853562e-10	1.980884e+01	5.669257e+01
2.490000e-06	2.820020e-06	9.019662e-10	2.008512e+01	5.795988e+01
2.500000e-06	2.858638e-06	9.264295e-10	2.036018e+01	5.919166e+01
2.510000e-06	2.897088e-06	9.557773e-10	2.063403e+01	6.038804e+01
2.520000e-06	2.935322e-06	9.841022e-10	2.090635e+01	6.154923e+01
2.530000e-06	2.973435e-06	1.006854e-09	2.117780e+01	6.267557e+01
2.540000e-06	3.011387e-06	1.023121e-09	2.144811e+01	6.376744e+01
2.550000e-06	3.049168e-06	1.032308e-09	2.171719e+01	6.482534e+01
2.560000e-06	3.086744e-06	1.037119e-09	2.198482e+01	6.584980e+01
2.570000e-06	3.124037e-06	1.045562e-09	2.225044e+01	6.684144e+01
2.580000e-06	3.161042e-06	1.059689e-09	2.251399e+01	6.780091e+01
2.590000e-06	3.197816e-06	1.078834e-09	2.277591e+01	6.872890e+01
2.600000e-06	3.234431e-06	1.101227e-09	2.303669e+01	6.962614e+01
2.610000e-06	3.270837e-06	1.123467e-09	2.329599e+01	7.049337e+01
2.620000e-06	3.307045e-06	1.139775e-09	2.355388e+01	7.133135e+01
2.630000e-06	3.343105e-06	1.150369e-09	2.381071e+01	7.214083e+01
2.640000e-06	3.379050e-06	1.155140e-09	2.406672e+01	7.292257e+01
2.650000e-06	3.414866e-06	1.156390e-09	2.432182e+01	7.367731e+01
2.660000e-06	3.450536e-06	1.159691e-09	2.457587e+01	7.440578e+01
2.670000e-06	3.485991e-06	1.166943e-09	2.482839e+01	7.510868e+01
2.680000e-06	3.521180e-06	1.176230e-09	2.507902e+01	7.578669e+01
2.690000e-06	3.555996e-06	1.189643e-09	2.532699e+01	7.644044e+01
2.700000e-06	3.590279e-06	1.207386e-09	2.557117e+01	7.707055e+01
2.710000e-06	3.624167e-06	1.224922e-09	2.581253e+01	7.767759e+01
2.720000e-06	3.657693e-06	1.235790e-09	2.605131e+01	7.826208e+01
2.730000e-06	3.690744e-06	1.242190e-09	2.628671e+01	7.882453e+01
2.740000e-06	3.723433e-06	1.246584e-09	2.651953e+01	7.936537e+01
2.750000e-06	3.755871e-06	1.250061e-09	2.675057e+01	7.988503e+01
2.760000e-06	3.788080e-06	1.253805e-09	2.697997e+01	8.038388e+01
2.770000e-06	3.820113e-06	1.259272e-09	2.720812e+01	8.086226e+01
2.780000e-06	3.851973e-06	1.269395e-09	2.743504e+01	8.132049e+01
2.790000e-06	3.883705e-06	1.282840e-09	2.766105e+01	8.175885e+01
2.800000e-06	3.915322e-06	1.292075e-09	2.788623e+01	8.217761e+01
2.810000e-06	3.946771e-06	1.294053e-09	2.811022e+01	8.257700e+01
2.820000e-06	3.977882e-06	1.296005e-09	2.833181e+01	8.295726e+01
2.830000e-06	4.008572e-06	1.300491e-09	2.855039e+01	8.331860e+01
2.840000e-06	4.038930e-06	1.302732e-09	2.876660e+01	8.366124e+01
2.850000e-06	4.068963e-06	1.303166e-09	2.898051e+01	8.398541e+01
2.860000e-06	4.098769e-06	1.306779e-09	2.919280e+01	8.429132e+01
2.870000e-06	4.128399e-06	1.313643e-09	2.940383e+01	8.457921e+01
2.880000e-06	4.157793e-06	1.320355e-09	2.961319e+01	8.484934e+01
2.890000e-06	4.186809e-06	1.321040e-09	2.981985e+01	8.510198e+01
2.900000e-06	4.215429e-06	1.320678e-09	3.002369e+01	8.533745e+01
