# Temperatura_=_-2.81
# Concentracion g/m^3_=_4090.0
# C_Vs_to_Am_M_A/Vsm_=_65563218390.804596
# pendiente_HvsI_1/m_=_3716.3
# ordenada_HvsI_A/m_=_1297.0
# frecuencia_Hz_=_135071.33357712562

Tiempo_(s)	Campo_(V.s)	Magnetizacion_(V.s)	Campo_(kA/m)	Magnetizacion_(A/m)
0.000000e+00	-5.411834e-06	-1.793543e-09	-3.839097e+01	-1.174694e+02
1.000000e-08	-5.412088e-06	-1.787488e-09	-3.839278e+01	-1.173925e+02
2.000000e-08	-5.412119e-06	-1.782342e-09	-3.839300e+01	-1.173190e+02
3.000000e-08	-5.411914e-06	-1.775657e-09	-3.839154e+01	-1.172493e+02
4.000000e-08	-5.411361e-06	-1.769734e-09	-3.838762e+01	-1.171838e+02
5.000000e-08	-5.410329e-06	-1.770032e-09	-3.838030e+01	-1.171230e+02
6.000000e-08	-5.408662e-06	-1.773882e-09	-3.836847e+01	-1.170672e+02
7.000000e-08	-5.406365e-06	-1.785712e-09	-3.835218e+01	-1.170166e+02
8.000000e-08	-5.403458e-06	-1.804093e-09	-3.833155e+01	-1.169714e+02
9.000000e-08	-5.399950e-06	-1.760196e-09	-3.830667e+01	-1.169319e+02
1.000000e-07	-5.395997e-06	-1.705611e-09	-3.827863e+01	-1.168981e+02
1.100000e-07	-5.391775e-06	-1.788893e-09	-3.824867e+01	-1.168700e+02
1.200000e-07	-5.387449e-06	-1.841895e-09	-3.821799e+01	-1.168476e+02
1.300000e-07	-5.382944e-06	-1.728684e-09	-3.818603e+01	-1.168307e+02
1.400000e-07	-5.378086e-06	-1.664578e-09	-3.815157e+01	-1.168192e+02
1.500000e-07	-5.372750e-06	-1.782121e-09	-3.811372e+01	-1.168127e+02
1.600000e-07	-5.367009e-06	-1.929033e-09	-3.807299e+01	-1.168110e+02
1.700000e-07	-5.360851e-06	-1.734980e-09	-3.802930e+01	-1.168137e+02
1.800000e-07	-5.354339e-06	-1.643082e-09	-3.798311e+01	-1.168202e+02
1.900000e-07	-5.347439e-06	-1.759988e-09	-3.793416e+01	-1.168301e+02
2.000000e-07	-5.340157e-06	-1.882848e-09	-3.788251e+01	-1.168428e+02
2.100000e-07	-5.332596e-06	-1.716559e-09	-3.782887e+01	-1.168576e+02
2.200000e-07	-5.324851e-06	-1.672327e-09	-3.777393e+01	-1.168740e+02
2.300000e-07	-5.316961e-06	-1.812998e-09	-3.771795e+01	-1.168911e+02
2.400000e-07	-5.308683e-06	-1.840641e-09	-3.765923e+01	-1.169082e+02
2.500000e-07	-5.299844e-06	-1.724445e-09	-3.759653e+01	-1.169246e+02
2.600000e-07	-5.290528e-06	-1.760278e-09	-3.753045e+01	-1.169393e+02
2.700000e-07	-5.280595e-06	-1.880265e-09	-3.745998e+01	-1.169518e+02
2.800000e-07	-5.269920e-06	-1.777874e-09	-3.738425e+01	-1.169610e+02
2.900000e-07	-5.258781e-06	-1.698295e-09	-3.730524e+01	-1.169661e+02
3.000000e-07	-5.247246e-06	-1.802949e-09	-3.722340e+01	-1.169664e+02
3.100000e-07	-5.235276e-06	-1.856371e-09	-3.713849e+01	-1.169611e+02
3.200000e-07	-5.222914e-06	-1.704957e-09	-3.705079e+01	-1.169493e+02
3.300000e-07	-5.210172e-06	-1.746099e-09	-3.696041e+01	-1.169304e+02
3.400000e-07	-5.196977e-06	-1.845167e-09	-3.686680e+01	-1.169035e+02
3.500000e-07	-5.183408e-06	-1.805961e-09	-3.677054e+01	-1.168680e+02
3.600000e-07	-5.169511e-06	-1.711418e-09	-3.667196e+01	-1.168233e+02
3.700000e-07	-5.155236e-06	-1.799179e-09	-3.657070e+01	-1.167688e+02
3.800000e-07	-5.140301e-06	-1.777482e-09	-3.646475e+01	-1.167040e+02
3.900000e-07	-5.124853e-06	-1.720074e-09	-3.635516e+01	-1.166283e+02
4.000000e-07	-5.108913e-06	-1.750283e-09	-3.624209e+01	-1.165415e+02
4.100000e-07	-5.092407e-06	-1.804609e-09	-3.612499e+01	-1.164432e+02
4.200000e-07	-5.075643e-06	-1.723337e-09	-3.600607e+01	-1.163330e+02
4.300000e-07	-5.058625e-06	-1.738524e-09	-3.588535e+01	-1.162110e+02
4.400000e-07	-5.041273e-06	-1.792060e-09	-3.576226e+01	-1.160768e+02
4.500000e-07	-5.023593e-06	-1.755675e-09	-3.563683e+01	-1.159306e+02
4.600000e-07	-5.005571e-06	-1.691911e-09	-3.550899e+01	-1.157723e+02
4.700000e-07	-4.987204e-06	-1.734666e-09	-3.537869e+01	-1.156021e+02
4.800000e-07	-4.968490e-06	-1.746116e-09	-3.524594e+01	-1.154201e+02
4.900000e-07	-4.949357e-06	-1.716440e-09	-3.511021e+01	-1.152266e+02
5.000000e-07	-4.929911e-06	-1.711354e-09	-3.497226e+01	-1.150219e+02
5.100000e-07	-4.910267e-06	-1.715518e-09	-3.483291e+01	-1.148064e+02
5.200000e-07	-4.890413e-06	-1.715170e-09	-3.469207e+01	-1.145806e+02
5.300000e-07	-4.870371e-06	-1.720247e-09	-3.454989e+01	-1.143448e+02
5.400000e-07	-4.849996e-06	-1.705570e-09	-3.440536e+01	-1.140998e+02
5.500000e-07	-4.829214e-06	-1.680832e-09	-3.425793e+01	-1.138460e+02
5.600000e-07	-4.808130e-06	-1.703345e-09	-3.410836e+01	-1.135840e+02
5.700000e-07	-4.786667e-06	-1.707839e-09	-3.395611e+01	-1.133146e+02
5.800000e-07	-4.764896e-06	-1.687698e-09	-3.380167e+01	-1.130384e+02
5.900000e-07	-4.742892e-06	-1.667444e-09	-3.364557e+01	-1.127560e+02
6.000000e-07	-4.720508e-06	-1.673220e-09	-3.348678e+01	-1.124682e+02
6.100000e-07	-4.697737e-06	-1.670694e-09	-3.332525e+01	-1.121756e+02
6.200000e-07	-4.674600e-06	-1.680862e-09	-3.316112e+01	-1.118789e+02
6.300000e-07	-4.651153e-06	-1.661097e-09	-3.299478e+01	-1.115789e+02
6.400000e-07	-4.627528e-06	-1.658526e-09	-3.282719e+01	-1.112761e+02
6.500000e-07	-4.603766e-06	-1.674338e-09	-3.265863e+01	-1.109712e+02
6.600000e-07	-4.579810e-06	-1.683998e-09	-3.248868e+01	-1.106647e+02
6.700000e-07	-4.555587e-06	-1.643470e-09	-3.231685e+01	-1.103574e+02
6.800000e-07	-4.531014e-06	-1.632875e-09	-3.214253e+01	-1.100496e+02
6.900000e-07	-4.505871e-06	-1.637188e-09	-3.196417e+01	-1.097418e+02
7.000000e-07	-4.480081e-06	-1.642530e-09	-3.178122e+01	-1.094345e+02
7.100000e-07	-4.453735e-06	-1.626548e-09	-3.159432e+01	-1.091280e+02
7.200000e-07	-4.426891e-06	-1.625442e-09	-3.140389e+01	-1.088226e+02
7.300000e-07	-4.399695e-06	-1.627737e-09	-3.121097e+01	-1.085187e+02
7.400000e-07	-4.372257e-06	-1.642300e-09	-3.101632e+01	-1.082163e+02
7.500000e-07	-4.344590e-06	-1.630231e-09	-3.082006e+01	-1.079156e+02
7.600000e-07	-4.316763e-06	-1.609327e-09	-3.062266e+01	-1.076167e+02
7.700000e-07	-4.288798e-06	-1.600615e-09	-3.042428e+01	-1.073196e+02
7.800000e-07	-4.260557e-06	-1.605675e-09	-3.022394e+01	-1.070241e+02
7.900000e-07	-4.231944e-06	-1.596846e-09	-3.002096e+01	-1.067303e+02
8.000000e-07	-4.203045e-06	-1.586436e-09	-2.981595e+01	-1.064380e+02
8.100000e-07	-4.173889e-06	-1.586975e-09	-2.960913e+01	-1.061468e+02
8.200000e-07	-4.144411e-06	-1.593587e-09	-2.940001e+01	-1.058566e+02
8.300000e-07	-4.114633e-06	-1.594040e-09	-2.918877e+01	-1.055670e+02
8.400000e-07	-4.084619e-06	-1.579102e-09	-2.897585e+01	-1.052777e+02
8.500000e-07	-4.054281e-06	-1.565250e-09	-2.876064e+01	-1.049882e+02
8.600000e-07	-4.023641e-06	-1.560603e-09	-2.854328e+01	-1.046982e+02
8.700000e-07	-3.992778e-06	-1.562188e-09	-2.832434e+01	-1.044072e+02
8.800000e-07	-3.961663e-06	-1.551883e-09	-2.810362e+01	-1.041147e+02
8.900000e-07	-3.930352e-06	-1.546274e-09	-2.788150e+01	-1.038202e+02
9.000000e-07	-3.898821e-06	-1.543913e-09	-2.765782e+01	-1.035233e+02
9.100000e-07	-3.867089e-06	-1.547178e-09	-2.743272e+01	-1.032234e+02
9.200000e-07	-3.835168e-06	-1.538038e-09	-2.720627e+01	-1.029201e+02
9.300000e-07	-3.803032e-06	-1.531158e-09	-2.697830e+01	-1.026129e+02
9.400000e-07	-3.770731e-06	-1.525188e-09	-2.674916e+01	-1.023012e+02
9.500000e-07	-3.738103e-06	-1.528365e-09	-2.651770e+01	-1.019847e+02
9.600000e-07	-3.705033e-06	-1.519516e-09	-2.628311e+01	-1.016630e+02
9.700000e-07	-3.671479e-06	-1.509920e-09	-2.604508e+01	-1.013355e+02
9.800000e-07	-3.637404e-06	-1.498796e-09	-2.580336e+01	-1.010021e+02
9.900000e-07	-3.602930e-06	-1.497315e-09	-2.555880e+01	-1.006623e+02
1.000000e-06	-3.568120e-06	-1.490780e-09	-2.531186e+01	-1.003159e+02
1.010000e-06	-3.533015e-06	-1.488422e-09	-2.506283e+01	-9.996257e+01
1.020000e-06	-3.497694e-06	-1.486107e-09	-2.481227e+01	-9.960220e+01
1.030000e-06	-3.462169e-06	-1.487454e-09	-2.456026e+01	-9.923460e+01
1.040000e-06	-3.426421e-06	-1.481239e-09	-2.430667e+01	-9.885969e+01
1.050000e-06	-3.390513e-06	-1.470432e-09	-2.405194e+01	-9.847739e+01
1.060000e-06	-3.354516e-06	-1.457308e-09	-2.379658e+01	-9.808771e+01
1.070000e-06	-3.318332e-06	-1.448755e-09	-2.353989e+01	-9.769069e+01
1.080000e-06	-3.281901e-06	-1.439647e-09	-2.328146e+01	-9.728640e+01
1.090000e-06	-3.245265e-06	-1.434737e-09	-2.302156e+01	-9.687497e+01
1.100000e-06	-3.208407e-06	-1.433977e-09	-2.276010e+01	-9.645657e+01
1.110000e-06	-3.171375e-06	-1.435087e-09	-2.249739e+01	-9.603141e+01
1.120000e-06	-3.134039e-06	-1.435858e-09	-2.223254e+01	-9.559972e+01
1.130000e-06	-3.096378e-06	-1.429629e-09	-2.196537e+01	-9.516177e+01
1.140000e-06	-3.058510e-06	-1.416823e-09	-2.169674e+01	-9.471786e+01
1.150000e-06	-3.020471e-06	-1.403329e-09	-2.142690e+01	-9.426831e+01
1.160000e-06	-2.982291e-06	-1.396211e-09	-2.115605e+01	-9.381344e+01
1.170000e-06	-2.943939e-06	-1.389901e-09	-2.088399e+01	-9.335362e+01
1.180000e-06	-2.905296e-06	-1.385540e-09	-2.060986e+01	-9.288918e+01
1.190000e-06	-2.866258e-06	-1.379606e-09	-2.033293e+01	-9.242049e+01
1.200000e-06	-2.827122e-06	-1.377327e-09	-2.005530e+01	-9.194791e+01
1.210000e-06	-2.787955e-06	-1.374381e-09	-1.977746e+01	-9.147177e+01
1.220000e-06	-2.748590e-06	-1.370192e-09	-1.949821e+01	-9.099241e+01
1.230000e-06	-2.709051e-06	-1.359155e-09	-1.921772e+01	-9.051015e+01
1.240000e-06	-2.669357e-06	-1.350385e-09	-1.893613e+01	-9.002528e+01
1.250000e-06	-2.629564e-06	-1.339734e-09	-1.865384e+01	-8.953808e+01
1.260000e-06	-2.589712e-06	-1.334376e-09	-1.837114e+01	-8.904877e+01
1.270000e-06	-2.549788e-06	-1.328065e-09	-1.808793e+01	-8.855758e+01
1.280000e-06	-2.509745e-06	-1.320627e-09	-1.780387e+01	-8.806466e+01
1.290000e-06	-2.469525e-06	-1.313312e-09	-1.751855e+01	-8.757015e+01
1.300000e-06	-2.429082e-06	-1.309776e-09	-1.723165e+01	-8.707414e+01
1.310000e-06	-2.388389e-06	-1.304443e-09	-1.694298e+01	-8.657668e+01
1.320000e-06	-2.347515e-06	-1.295977e-09	-1.665302e+01	-8.607777e+01
1.330000e-06	-2.306487e-06	-1.285962e-09	-1.636197e+01	-8.557738e+01
1.340000e-06	-2.265141e-06	-1.279377e-09	-1.606867e+01	-8.507540e+01
1.350000e-06	-2.223430e-06	-1.273400e-09	-1.577277e+01	-8.457173e+01
1.360000e-06	-2.181455e-06	-1.266191e-09	-1.547501e+01	-8.406618e+01
1.370000e-06	-2.139150e-06	-1.256322e-09	-1.517491e+01	-8.355853e+01
1.380000e-06	-2.096602e-06	-1.246879e-09	-1.487307e+01	-8.304854e+01
1.390000e-06	-2.053912e-06	-1.237945e-09	-1.457023e+01	-8.253590e+01
1.400000e-06	-2.010951e-06	-1.230096e-09	-1.426547e+01	-8.202030e+01
1.410000e-06	-1.967756e-06	-1.221495e-09	-1.395905e+01	-8.150135e+01
1.420000e-06	-1.924447e-06	-1.214245e-09	-1.365182e+01	-8.097868e+01
1.430000e-06	-1.881054e-06	-1.208662e-09	-1.334399e+01	-8.045186e+01
1.440000e-06	-1.837518e-06	-1.202244e-09	-1.303516e+01	-7.992044e+01
1.450000e-06	-1.793895e-06	-1.194084e-09	-1.272570e+01	-7.938398e+01
1.460000e-06	-1.750212e-06	-1.181387e-09	-1.241581e+01	-7.884199e+01
1.470000e-06	-1.706429e-06	-1.171459e-09	-1.210523e+01	-7.829399e+01
1.480000e-06	-1.662564e-06	-1.164035e-09	-1.179405e+01	-7.773948e+01
1.490000e-06	-1.618643e-06	-1.158352e-09	-1.148248e+01	-7.717798e+01
1.500000e-06	-1.574666e-06	-1.151904e-09	-1.117051e+01	-7.660897e+01
1.510000e-06	-1.530575e-06	-1.145356e-09	-1.085774e+01	-7.603198e+01
1.520000e-06	-1.486380e-06	-1.137832e-09	-1.054422e+01	-7.544652e+01
1.530000e-06	-1.442128e-06	-1.126477e-09	-1.023030e+01	-7.485213e+01
1.540000e-06	-1.397773e-06	-1.111614e-09	-9.915656e+00	-7.424834e+01
1.550000e-06	-1.353297e-06	-1.100382e-09	-9.600144e+00	-7.363472e+01
1.560000e-06	-1.308782e-06	-1.092423e-09	-9.284362e+00	-7.301085e+01
1.570000e-06	-1.264242e-06	-1.085915e-09	-8.968396e+00	-7.237634e+01
1.580000e-06	-1.219612e-06	-1.077161e-09	-8.651797e+00	-7.173081e+01
1.590000e-06	-1.174853e-06	-1.067697e-09	-8.334284e+00	-7.107390e+01
1.600000e-06	-1.130016e-06	-1.057868e-09	-8.016212e+00	-7.040530e+01
1.610000e-06	-1.085154e-06	-1.046508e-09	-7.697964e+00	-6.972471e+01
1.620000e-06	-1.040136e-06	-1.029156e-09	-7.378612e+00	-6.903185e+01
1.630000e-06	-9.949703e-07	-1.013129e-09	-7.058214e+00	-6.832647e+01
1.640000e-06	-9.497685e-07	-1.000874e-09	-6.737557e+00	-6.760835e+01
1.650000e-06	-9.045587e-07	-9.930270e-10	-6.416843e+00	-6.687727e+01
1.660000e-06	-8.593224e-07	-9.855034e-10	-6.095941e+00	-6.613306e+01
1.670000e-06	-8.140286e-07	-9.784437e-10	-5.774632e+00	-6.537554e+01
1.680000e-06	-7.686653e-07	-9.738315e-10	-5.452830e+00	-6.460457e+01
1.690000e-06	-7.232101e-07	-9.646818e-10	-5.130376e+00	-6.382001e+01
1.700000e-06	-6.777127e-07	-9.478150e-10	-4.807622e+00	-6.302172e+01
1.710000e-06	-6.322008e-07	-9.303127e-10	-4.484766e+00	-6.220959e+01
1.720000e-06	-5.865723e-07	-9.173840e-10	-4.161081e+00	-6.138350e+01
1.730000e-06	-5.408908e-07	-9.072576e-10	-3.837021e+00	-6.054332e+01
1.740000e-06	-4.952379e-07	-8.965408e-10	-3.513165e+00	-5.968894e+01
1.750000e-06	-4.495572e-07	-8.842325e-10	-3.189111e+00	-5.882023e+01
1.760000e-06	-4.037674e-07	-8.736705e-10	-2.864283e+00	-5.793704e+01
1.770000e-06	-3.578783e-07	-8.632659e-10	-2.538751e+00	-5.703924e+01
1.780000e-06	-3.120097e-07	-8.495548e-10	-2.213364e+00	-5.612664e+01
1.790000e-06	-2.661779e-07	-8.327639e-10	-1.888238e+00	-5.519907e+01
1.800000e-06	-2.202919e-07	-8.184171e-10	-1.562727e+00	-5.425632e+01
1.810000e-06	-1.742494e-07	-8.049840e-10	-1.236106e+00	-5.329816e+01
1.820000e-06	-1.282310e-07	-7.897509e-10	-9.096574e-01	-5.232434e+01
1.830000e-06	-8.231647e-08	-7.723784e-10	-5.839443e-01	-5.133457e+01
1.840000e-06	-3.643587e-08	-7.559593e-10	-2.584722e-01	-5.032854e+01
1.850000e-06	9.382765e-09	-7.396239e-10	6.656033e-02	-4.930593e+01
1.860000e-06	5.526075e-08	-7.251116e-10	3.920138e-01	-4.826637e+01
1.870000e-06	1.011731e-07	-7.115783e-10	7.177111e-01	-4.720947e+01
1.880000e-06	1.470564e-07	-6.991723e-10	1.043203e+00	-4.613481e+01
1.890000e-06	1.929847e-07	-6.869201e-10	1.369013e+00	-4.504197e+01
1.900000e-06	2.388015e-07	-6.708566e-10	1.694032e+00	-4.393047e+01
1.910000e-06	2.844826e-07	-6.473537e-10	2.018089e+00	-4.279984e+01
1.920000e-06	3.302276e-07	-6.209278e-10	2.342600e+00	-4.164958e+01
1.930000e-06	3.759732e-07	-5.971045e-10	2.667114e+00	-4.047919e+01
1.940000e-06	4.217350e-07	-5.772272e-10	2.991743e+00	-3.928815e+01
1.950000e-06	4.675530e-07	-5.588883e-10	3.316771e+00	-3.807593e+01
1.960000e-06	5.132820e-07	-5.431313e-10	3.641168e+00	-3.684202e+01
1.970000e-06	5.588726e-07	-5.300877e-10	3.964582e+00	-3.558590e+01
1.980000e-06	6.043682e-07	-5.131891e-10	4.287323e+00	-3.430707e+01
1.990000e-06	6.498437e-07	-4.899072e-10	4.609922e+00	-3.300504e+01
2.000000e-06	6.953219e-07	-4.655242e-10	4.932540e+00	-3.167935e+01
2.010000e-06	7.407621e-07	-4.428019e-10	5.254888e+00	-3.032957e+01
2.020000e-06	7.861721e-07	-4.206650e-10	5.577021e+00	-2.895529e+01
2.030000e-06	8.315598e-07	-3.968954e-10	5.898996e+00	-2.755615e+01
2.040000e-06	8.768845e-07	-3.718077e-10	6.220526e+00	-2.613184e+01
2.050000e-06	9.221618e-07	-3.493830e-10	6.541718e+00	-2.468210e+01
2.060000e-06	9.673709e-07	-3.296020e-10	6.862426e+00	-2.320672e+01
2.070000e-06	1.012513e-06	-3.081466e-10	7.182659e+00	-2.170557e+01
2.080000e-06	1.057622e-06	-2.830295e-10	7.502658e+00	-2.017856e+01
2.090000e-06	1.102592e-06	-2.581101e-10	7.821673e+00	-1.862569e+01
2.100000e-06	1.147360e-06	-2.355649e-10	8.139247e+00	-1.704705e+01
2.110000e-06	1.192060e-06	-2.113480e-10	8.456349e+00	-1.544279e+01
2.120000e-06	1.236733e-06	-1.825566e-10	8.773252e+00	-1.381314e+01
2.130000e-06	1.281360e-06	-1.545545e-10	9.089835e+00	-1.215843e+01
2.140000e-06	1.325894e-06	-1.314302e-10	9.405749e+00	-1.047908e+01
2.150000e-06	1.370265e-06	-1.113948e-10	9.720515e+00	-8.775595e+00
2.160000e-06	1.414525e-06	-8.825511e-11	1.003449e+01	-7.048559e+00
2.170000e-06	1.458728e-06	-6.187829e-11	1.034806e+01	-5.298661e+00
2.180000e-06	1.502848e-06	-3.499350e-11	1.066104e+01	-3.526677e+00
2.190000e-06	1.546842e-06	-9.384605e-12	1.097314e+01	-1.733470e+00
2.200000e-06	1.590813e-06	1.762708e-11	1.128506e+01	8.000675e-02
2.210000e-06	1.634743e-06	4.659924e-11	1.159669e+01	1.912718e+00
2.220000e-06	1.678604e-06	7.569864e-11	1.190784e+01	3.763545e+00
2.230000e-06	1.722449e-06	1.055079e-10	1.221887e+01	5.631292e+00
2.240000e-06	1.766191e-06	1.382517e-10	1.252917e+01	7.514687e+00
2.250000e-06	1.809817e-06	1.704009e-10	1.283865e+01	9.412391e+00
2.260000e-06	1.853341e-06	1.978543e-10	1.314740e+01	1.132300e+01
2.270000e-06	1.896756e-06	2.235546e-10	1.345538e+01	1.324505e+01
2.280000e-06	1.940057e-06	2.519432e-10	1.376255e+01	1.517704e+01
2.290000e-06	1.983241e-06	2.826953e-10	1.406890e+01	1.711739e+01
2.300000e-06	2.026172e-06	3.123756e-10	1.437345e+01	1.906452e+01
2.310000e-06	2.068904e-06	3.389814e-10	1.467658e+01	2.101679e+01
2.320000e-06	2.111485e-06	3.663759e-10	1.497865e+01	2.297255e+01
2.330000e-06	2.153762e-06	3.979160e-10	1.527856e+01	2.493012e+01
2.340000e-06	2.195864e-06	4.289517e-10	1.557723e+01	2.688783e+01
2.350000e-06	2.237866e-06	4.562873e-10	1.587518e+01	2.884399e+01
2.360000e-06	2.279553e-06	4.823368e-10	1.617091e+01	3.079692e+01
2.370000e-06	2.320800e-06	5.119079e-10	1.646350e+01	3.274495e+01
2.380000e-06	2.361675e-06	5.437861e-10	1.675347e+01	3.468644e+01
2.390000e-06	2.402364e-06	5.716667e-10	1.704211e+01	3.661976e+01
2.400000e-06	2.442942e-06	5.963650e-10	1.732997e+01	3.854332e+01
2.410000e-06	2.483289e-06	6.234982e-10	1.761619e+01	4.045557e+01
2.420000e-06	2.523463e-06	6.544935e-10	1.790118e+01	4.235500e+01
2.430000e-06	2.563564e-06	6.876440e-10	1.818565e+01	4.424015e+01
2.440000e-06	2.603556e-06	7.192044e-10	1.846935e+01	4.610962e+01
2.450000e-06	2.643457e-06	7.492474e-10	1.875240e+01	4.796205e+01
2.460000e-06	2.683225e-06	7.785860e-10	1.903451e+01	4.979616e+01
2.470000e-06	2.722829e-06	8.061150e-10	1.931546e+01	5.161074e+01
2.480000e-06	2.762267e-06	8.296106e-10	1.959522e+01	5.340462e+01
2.490000e-06	2.801499e-06	8.529351e-10	1.987354e+01	5.517674e+01
2.500000e-06	2.840533e-06	8.791488e-10	2.015044e+01	5.692608e+01
2.510000e-06	2.879288e-06	9.082306e-10	2.042536e+01	5.865171e+01
2.520000e-06	2.917806e-06	9.382803e-10	2.069861e+01	6.035277e+01
2.530000e-06	2.956221e-06	9.686501e-10	2.097112e+01	6.202846e+01
2.540000e-06	2.994495e-06	9.984900e-10	2.124263e+01	6.367809e+01
2.550000e-06	3.032538e-06	1.024511e-09	2.151250e+01	6.530100e+01
2.560000e-06	3.070340e-06	1.044940e-09	2.178066e+01	6.689663e+01
2.570000e-06	3.107939e-06	1.062566e-09	2.204739e+01	6.846448e+01
2.580000e-06	3.145389e-06	1.081738e-09	2.231305e+01	7.000413e+01
2.590000e-06	3.182614e-06	1.103723e-09	2.257712e+01	7.151520e+01
2.600000e-06	3.219571e-06	1.128914e-09	2.283929e+01	7.299740e+01
2.610000e-06	3.256221e-06	1.155948e-09	2.309929e+01	7.445049e+01
2.620000e-06	3.292629e-06	1.182587e-09	2.335756e+01	7.587427e+01
2.630000e-06	3.328933e-06	1.206112e-09	2.361510e+01	7.726863e+01
2.640000e-06	3.365083e-06	1.224543e-09	2.387154e+01	7.863347e+01
2.650000e-06	3.401040e-06	1.239135e-09	2.412661e+01	7.996877e+01
2.660000e-06	3.436834e-06	1.253601e-09	2.438053e+01	8.127454e+01
2.670000e-06	3.472520e-06	1.269662e-09	2.463369e+01	8.255082e+01
2.680000e-06	3.508099e-06	1.288202e-09	2.488608e+01	8.379771e+01
2.690000e-06	3.543422e-06	1.309970e-09	2.513666e+01	8.501533e+01
2.700000e-06	3.578460e-06	1.333834e-09	2.538522e+01	8.620382e+01
2.710000e-06	3.613124e-06	1.357214e-09	2.563111e+01	8.736336e+01
2.720000e-06	3.647380e-06	1.375834e-09	2.587413e+01	8.849415e+01
2.730000e-06	3.681305e-06	1.389374e-09	2.611479e+01	8.959643e+01
2.740000e-06	3.714806e-06	1.402389e-09	2.635244e+01	9.067043e+01
2.750000e-06	3.747806e-06	1.414999e-09	2.658654e+01	9.171642e+01
2.760000e-06	3.780320e-06	1.430259e-09	2.681719e+01	9.273467e+01
2.770000e-06	3.812517e-06	1.447850e-09	2.704559e+01	9.372547e+01
2.780000e-06	3.844553e-06	1.466143e-09	2.727285e+01	9.468912e+01
2.790000e-06	3.876448e-06	1.483398e-09	2.749911e+01	9.562594e+01
2.800000e-06	3.908164e-06	1.494515e-09	2.772410e+01	9.653626e+01
2.810000e-06	3.939713e-06	1.498780e-09	2.794790e+01	9.742040e+01
2.820000e-06	3.970989e-06	1.502755e-09	2.816977e+01	9.827872e+01
2.830000e-06	4.001971e-06	1.513215e-09	2.838956e+01	9.911156e+01
2.840000e-06	4.032670e-06	1.528687e-09	2.860733e+01	9.991928e+01
2.850000e-06	4.063072e-06	1.545436e-09	2.882300e+01	1.007023e+02
2.860000e-06	4.093248e-06	1.561839e-09	2.903706e+01	1.014609e+02
2.870000e-06	4.123172e-06	1.576120e-09	2.924934e+01	1.021955e+02
2.880000e-06	4.152820e-06	1.586695e-09	2.945966e+01	1.029066e+02
2.890000e-06	4.182225e-06	1.592299e-09	2.966826e+01	1.035944e+02
2.900000e-06	4.211318e-06	1.594562e-09	2.987464e+01	1.042596e+02
