# Temperatura_=_19.0
# Concentracion g/m^3_=_4090.0
# C_Vs_to_Am_M_A/Vsm_=_65563218390.804596
# pendiente_HvsI_1/m_=_3716.3
# ordenada_HvsI_A/m_=_1297.0
# frecuencia_Hz_=_135081.0222921843

Tiempo_(s)	Campo_(V.s)	Magnetizacion_(V.s)	Campo_(kA/m)	Magnetizacion_(A/m)
0.000000e+00	-5.401542e-06	-1.281698e-09	-3.838880e+01	-8.645302e+01
1.000000e-08	-5.401523e-06	-1.276756e-09	-3.838867e+01	-8.630699e+01
2.000000e-08	-5.401314e-06	-1.270876e-09	-3.838718e+01	-8.617033e+01
3.000000e-08	-5.400926e-06	-1.266466e-09	-3.838443e+01	-8.604384e+01
4.000000e-08	-5.400181e-06	-1.261284e-09	-3.837913e+01	-8.592826e+01
5.000000e-08	-5.398910e-06	-1.255253e-09	-3.837010e+01	-8.582422e+01
6.000000e-08	-5.397080e-06	-1.249928e-09	-3.835709e+01	-8.573227e+01
7.000000e-08	-5.394648e-06	-1.246544e-09	-3.833981e+01	-8.565287e+01
8.000000e-08	-5.391529e-06	-1.270096e-09	-3.831764e+01	-8.558635e+01
9.000000e-08	-5.387723e-06	-1.302449e-09	-3.829059e+01	-8.553294e+01
1.000000e-07	-5.383443e-06	-1.296142e-09	-3.826017e+01	-8.549277e+01
1.100000e-07	-5.379033e-06	-1.254677e-09	-3.822883e+01	-8.546584e+01
1.200000e-07	-5.374623e-06	-1.259776e-09	-3.819749e+01	-8.545203e+01
1.300000e-07	-5.369984e-06	-1.256137e-09	-3.816452e+01	-8.545111e+01
1.400000e-07	-5.364782e-06	-1.277638e-09	-3.812755e+01	-8.546273e+01
1.500000e-07	-5.359067e-06	-1.227272e-09	-3.808693e+01	-8.548644e+01
1.600000e-07	-5.353148e-06	-1.260343e-09	-3.804487e+01	-8.552165e+01
1.700000e-07	-5.346875e-06	-1.253984e-09	-3.800029e+01	-8.556769e+01
1.800000e-07	-5.340071e-06	-1.263209e-09	-3.795193e+01	-8.562378e+01
1.900000e-07	-5.332900e-06	-1.265472e-09	-3.790096e+01	-8.568904e+01
2.000000e-07	-5.325542e-06	-1.292315e-09	-3.784867e+01	-8.576251e+01
2.100000e-07	-5.317915e-06	-1.272547e-09	-3.779447e+01	-8.584314e+01
2.200000e-07	-5.309977e-06	-1.250328e-09	-3.773805e+01	-8.592981e+01
2.300000e-07	-5.301788e-06	-1.310324e-09	-3.767985e+01	-8.602136e+01
2.400000e-07	-5.293294e-06	-1.344442e-09	-3.761949e+01	-8.611656e+01
2.500000e-07	-5.284122e-06	-1.340854e-09	-3.755430e+01	-8.621413e+01
2.600000e-07	-5.274172e-06	-1.323326e-09	-3.748358e+01	-8.631277e+01
2.700000e-07	-5.263767e-06	-1.400368e-09	-3.740963e+01	-8.641118e+01
2.800000e-07	-5.252821e-06	-1.399552e-09	-3.733184e+01	-8.650802e+01
2.900000e-07	-5.241352e-06	-1.345184e-09	-3.725033e+01	-8.660198e+01
3.000000e-07	-5.229519e-06	-1.315302e-09	-3.716624e+01	-8.669174e+01
3.100000e-07	-5.217369e-06	-1.393592e-09	-3.707988e+01	-8.677603e+01
3.200000e-07	-5.204832e-06	-1.395846e-09	-3.699078e+01	-8.685362e+01
3.300000e-07	-5.191949e-06	-1.381301e-09	-3.689922e+01	-8.692330e+01
3.400000e-07	-5.178675e-06	-1.374684e-09	-3.680488e+01	-8.698394e+01
3.500000e-07	-5.164972e-06	-1.410915e-09	-3.670749e+01	-8.703447e+01
3.600000e-07	-5.150938e-06	-1.386551e-09	-3.660776e+01	-8.707391e+01
3.700000e-07	-5.136509e-06	-1.383943e-09	-3.650521e+01	-8.710134e+01
3.800000e-07	-5.121588e-06	-1.355393e-09	-3.639916e+01	-8.711594e+01
3.900000e-07	-5.105983e-06	-1.343630e-09	-3.628826e+01	-8.711699e+01
4.000000e-07	-5.089809e-06	-1.353616e-09	-3.617332e+01	-8.710388e+01
4.100000e-07	-5.073316e-06	-1.396269e-09	-3.605610e+01	-8.707610e+01
4.200000e-07	-5.056497e-06	-1.376105e-09	-3.593657e+01	-8.703323e+01
4.300000e-07	-5.039397e-06	-1.351340e-09	-3.581503e+01	-8.697498e+01
4.400000e-07	-5.022011e-06	-1.367314e-09	-3.569147e+01	-8.690118e+01
4.500000e-07	-5.004251e-06	-1.370776e-09	-3.556525e+01	-8.681176e+01
4.600000e-07	-4.986101e-06	-1.340977e-09	-3.543626e+01	-8.670675e+01
4.700000e-07	-4.967715e-06	-1.319536e-09	-3.530559e+01	-8.658632e+01
4.800000e-07	-4.948962e-06	-1.326039e-09	-3.517231e+01	-8.645071e+01
4.900000e-07	-4.929712e-06	-1.331135e-09	-3.503550e+01	-8.630028e+01
5.000000e-07	-4.910098e-06	-1.342748e-09	-3.489610e+01	-8.613549e+01
5.100000e-07	-4.890244e-06	-1.323096e-09	-3.475500e+01	-8.595688e+01
5.200000e-07	-4.870247e-06	-1.315744e-09	-3.461288e+01	-8.576507e+01
5.300000e-07	-4.850044e-06	-1.325644e-09	-3.446930e+01	-8.556076e+01
5.400000e-07	-4.829559e-06	-1.337238e-09	-3.432372e+01	-8.534472e+01
5.500000e-07	-4.808714e-06	-1.305927e-09	-3.417557e+01	-8.511778e+01
5.600000e-07	-4.787511e-06	-1.307729e-09	-3.402488e+01	-8.488081e+01
5.700000e-07	-4.765987e-06	-1.312951e-09	-3.387191e+01	-8.463474e+01
5.800000e-07	-4.744159e-06	-1.307330e-09	-3.371678e+01	-8.438050e+01
5.900000e-07	-4.722007e-06	-1.286987e-09	-3.355934e+01	-8.411906e+01
6.000000e-07	-4.699417e-06	-1.291810e-09	-3.339879e+01	-8.385142e+01
6.100000e-07	-4.676488e-06	-1.285721e-09	-3.323584e+01	-8.357853e+01
6.200000e-07	-4.653309e-06	-1.300350e-09	-3.307110e+01	-8.330139e+01
6.300000e-07	-4.629774e-06	-1.305773e-09	-3.290384e+01	-8.302095e+01
6.400000e-07	-4.605982e-06	-1.295005e-09	-3.273475e+01	-8.273813e+01
6.500000e-07	-4.582014e-06	-1.278289e-09	-3.256441e+01	-8.245383e+01
6.600000e-07	-4.557830e-06	-1.286286e-09	-3.239254e+01	-8.216891e+01
6.700000e-07	-4.533353e-06	-1.275157e-09	-3.221857e+01	-8.188417e+01
6.800000e-07	-4.508456e-06	-1.262906e-09	-3.204164e+01	-8.160036e+01
6.900000e-07	-4.483000e-06	-1.261491e-09	-3.186072e+01	-8.131817e+01
7.000000e-07	-4.456894e-06	-1.271182e-09	-3.167518e+01	-8.103822e+01
7.100000e-07	-4.430290e-06	-1.271642e-09	-3.148611e+01	-8.076106e+01
7.200000e-07	-4.403403e-06	-1.268249e-09	-3.129502e+01	-8.048717e+01
7.300000e-07	-4.376114e-06	-1.257940e-09	-3.110108e+01	-8.021694e+01
7.400000e-07	-4.348450e-06	-1.251388e-09	-3.090447e+01	-7.995070e+01
7.500000e-07	-4.320652e-06	-1.254161e-09	-3.070691e+01	-7.968869e+01
7.600000e-07	-4.292718e-06	-1.251048e-09	-3.050838e+01	-7.943107e+01
7.700000e-07	-4.264611e-06	-1.246919e-09	-3.030862e+01	-7.917793e+01
7.800000e-07	-4.236326e-06	-1.245018e-09	-3.010760e+01	-7.892929e+01
7.900000e-07	-4.207769e-06	-1.245276e-09	-2.990465e+01	-7.868507e+01
8.000000e-07	-4.178856e-06	-1.233818e-09	-2.969917e+01	-7.844515e+01
8.100000e-07	-4.149561e-06	-1.223406e-09	-2.949096e+01	-7.820932e+01
8.200000e-07	-4.119910e-06	-1.215618e-09	-2.928024e+01	-7.797733e+01
8.300000e-07	-4.090048e-06	-1.219797e-09	-2.906800e+01	-7.774886e+01
8.400000e-07	-4.059917e-06	-1.220473e-09	-2.885386e+01	-7.752353e+01
8.500000e-07	-4.029455e-06	-1.220418e-09	-2.863737e+01	-7.730095e+01
8.600000e-07	-3.998725e-06	-1.212778e-09	-2.841897e+01	-7.708065e+01
8.700000e-07	-3.967795e-06	-1.212247e-09	-2.819915e+01	-7.686215e+01
8.800000e-07	-3.936605e-06	-1.203452e-09	-2.797748e+01	-7.664495e+01
8.900000e-07	-3.905095e-06	-1.193576e-09	-2.775354e+01	-7.642852e+01
9.000000e-07	-3.873297e-06	-1.181574e-09	-2.752756e+01	-7.621232e+01
9.100000e-07	-3.841364e-06	-1.185005e-09	-2.730060e+01	-7.599581e+01
9.200000e-07	-3.809345e-06	-1.189407e-09	-2.707305e+01	-7.577844e+01
9.300000e-07	-3.777085e-06	-1.193591e-09	-2.684378e+01	-7.555969e+01
9.400000e-07	-3.744494e-06	-1.190731e-09	-2.661215e+01	-7.533903e+01
9.500000e-07	-3.711633e-06	-1.189526e-09	-2.637860e+01	-7.511596e+01
9.600000e-07	-3.678509e-06	-1.183983e-09	-2.614320e+01	-7.489001e+01
9.700000e-07	-3.644865e-06	-1.172412e-09	-2.590408e+01	-7.466073e+01
9.800000e-07	-3.610691e-06	-1.156421e-09	-2.566121e+01	-7.442772e+01
9.900000e-07	-3.576194e-06	-1.148889e-09	-2.541604e+01	-7.419058e+01
1.000000e-06	-3.541391e-06	-1.148501e-09	-2.516870e+01	-7.394900e+01
1.010000e-06	-3.506289e-06	-1.151899e-09	-2.491923e+01	-7.370267e+01
1.020000e-06	-3.470865e-06	-1.153761e-09	-2.466747e+01	-7.345135e+01
1.030000e-06	-3.435102e-06	-1.153037e-09	-2.441330e+01	-7.319483e+01
1.040000e-06	-3.399224e-06	-1.150860e-09	-2.415831e+01	-7.293296e+01
1.050000e-06	-3.363228e-06	-1.144568e-09	-2.390249e+01	-7.266563e+01
1.060000e-06	-3.327072e-06	-1.132017e-09	-2.364553e+01	-7.239277e+01
1.070000e-06	-3.290762e-06	-1.116994e-09	-2.338747e+01	-7.211436e+01
1.080000e-06	-3.254237e-06	-1.109748e-09	-2.312789e+01	-7.183042e+01
1.090000e-06	-3.217508e-06	-1.108632e-09	-2.286685e+01	-7.154100e+01
1.100000e-06	-3.180523e-06	-1.111246e-09	-2.260400e+01	-7.124621e+01
1.110000e-06	-3.143308e-06	-1.109244e-09	-2.233952e+01	-7.094617e+01
1.120000e-06	-3.105904e-06	-1.106648e-09	-2.207369e+01	-7.064105e+01
1.130000e-06	-3.068258e-06	-1.099566e-09	-2.180613e+01	-7.033103e+01
1.140000e-06	-3.030413e-06	-1.090844e-09	-2.153717e+01	-7.001631e+01
1.150000e-06	-2.992424e-06	-1.078872e-09	-2.126718e+01	-6.969712e+01
1.160000e-06	-2.954179e-06	-1.069843e-09	-2.099537e+01	-6.937370e+01
1.170000e-06	-2.915718e-06	-1.063570e-09	-2.072203e+01	-6.904630e+01
1.180000e-06	-2.877085e-06	-1.061107e-09	-2.044747e+01	-6.871516e+01
1.190000e-06	-2.838266e-06	-1.055733e-09	-2.017158e+01	-6.838054e+01
1.200000e-06	-2.799258e-06	-1.054746e-09	-1.989435e+01	-6.804269e+01
1.210000e-06	-2.759987e-06	-1.054704e-09	-1.961525e+01	-6.770183e+01
1.220000e-06	-2.720503e-06	-1.052350e-09	-1.933463e+01	-6.735819e+01
1.230000e-06	-2.680844e-06	-1.044207e-09	-1.905278e+01	-6.701199e+01
1.240000e-06	-2.641033e-06	-1.036940e-09	-1.876984e+01	-6.666340e+01
1.250000e-06	-2.601135e-06	-1.029061e-09	-1.848629e+01	-6.631259e+01
1.260000e-06	-2.561086e-06	-1.021831e-09	-1.820166e+01	-6.595970e+01
1.270000e-06	-2.520938e-06	-1.012384e-09	-1.791632e+01	-6.560485e+01
1.280000e-06	-2.480799e-06	-1.004757e-09	-1.763106e+01	-6.524810e+01
1.290000e-06	-2.440575e-06	-1.001986e-09	-1.734519e+01	-6.488952e+01
1.300000e-06	-2.400204e-06	-1.000034e-09	-1.705827e+01	-6.452912e+01
1.310000e-06	-2.359651e-06	-9.932182e-10	-1.677006e+01	-6.416688e+01
1.320000e-06	-2.318860e-06	-9.860043e-10	-1.648015e+01	-6.380276e+01
1.330000e-06	-2.277833e-06	-9.823222e-10	-1.618858e+01	-6.343668e+01
1.340000e-06	-2.236558e-06	-9.792952e-10	-1.589524e+01	-6.306853e+01
1.350000e-06	-2.195048e-06	-9.727768e-10	-1.560022e+01	-6.269817e+01
1.360000e-06	-2.153222e-06	-9.616496e-10	-1.530296e+01	-6.232542e+01
1.370000e-06	-2.111028e-06	-9.530925e-10	-1.500309e+01	-6.195009e+01
1.380000e-06	-2.068515e-06	-9.469209e-10	-1.470095e+01	-6.157196e+01
1.390000e-06	-2.025620e-06	-9.421280e-10	-1.439610e+01	-6.119077e+01
1.400000e-06	-1.982516e-06	-9.380472e-10	-1.408976e+01	-6.080626e+01
1.410000e-06	-1.939430e-06	-9.358539e-10	-1.378354e+01	-6.041814e+01
1.420000e-06	-1.896170e-06	-9.315719e-10	-1.347609e+01	-6.002611e+01
1.430000e-06	-1.852664e-06	-9.247849e-10	-1.316690e+01	-5.962985e+01
1.440000e-06	-1.809077e-06	-9.137281e-10	-1.285713e+01	-5.922904e+01
1.450000e-06	-1.765423e-06	-9.023150e-10	-1.254687e+01	-5.882334e+01
1.460000e-06	-1.721680e-06	-8.950077e-10	-1.223599e+01	-5.841241e+01
1.470000e-06	-1.677820e-06	-8.918790e-10	-1.192428e+01	-5.799589e+01
1.480000e-06	-1.633802e-06	-8.885303e-10	-1.161145e+01	-5.757345e+01
1.490000e-06	-1.589695e-06	-8.882111e-10	-1.129798e+01	-5.714474e+01
1.500000e-06	-1.545519e-06	-8.869783e-10	-1.098401e+01	-5.670940e+01
1.510000e-06	-1.501299e-06	-8.822694e-10	-1.066974e+01	-5.626709e+01
1.520000e-06	-1.457079e-06	-8.715345e-10	-1.035547e+01	-5.581748e+01
1.530000e-06	-1.412811e-06	-8.571688e-10	-1.004086e+01	-5.536021e+01
1.540000e-06	-1.368414e-06	-8.453229e-10	-9.725328e+00	-5.489496e+01
1.550000e-06	-1.323958e-06	-8.393151e-10	-9.409382e+00	-5.442140e+01
1.560000e-06	-1.279453e-06	-8.353053e-10	-9.093082e+00	-5.393920e+01
1.570000e-06	-1.234895e-06	-8.320710e-10	-8.776410e+00	-5.344803e+01
1.580000e-06	-1.190319e-06	-8.279779e-10	-8.459604e+00	-5.294756e+01
1.590000e-06	-1.145650e-06	-8.227618e-10	-8.142142e+00	-5.243748e+01
1.600000e-06	-1.100886e-06	-8.152550e-10	-7.824004e+00	-5.191746e+01
1.610000e-06	-1.055964e-06	-8.040396e-10	-7.504744e+00	-5.138715e+01
1.620000e-06	-1.010938e-06	-7.911573e-10	-7.184744e+00	-5.084623e+01
1.630000e-06	-9.658235e-07	-7.803979e-10	-6.864115e+00	-5.029435e+01
1.640000e-06	-9.206830e-07	-7.709135e-10	-6.543301e+00	-4.973115e+01
1.650000e-06	-8.756046e-07	-7.619655e-10	-6.222929e+00	-4.915626e+01
1.660000e-06	-8.303575e-07	-7.525526e-10	-5.901357e+00	-4.856929e+01
1.670000e-06	-7.850555e-07	-7.454724e-10	-5.579396e+00	-4.796983e+01
1.680000e-06	-7.397667e-07	-7.390417e-10	-5.257528e+00	-4.735745e+01
1.690000e-06	-6.943453e-07	-7.287295e-10	-4.934718e+00	-4.673171e+01
1.700000e-06	-6.488868e-07	-7.164358e-10	-4.611644e+00	-4.609213e+01
1.710000e-06	-6.034101e-07	-7.052780e-10	-4.288441e+00	-4.543820e+01
1.720000e-06	-5.578436e-07	-6.956380e-10	-3.964599e+00	-4.476938e+01
1.730000e-06	-5.121552e-07	-6.843800e-10	-3.639891e+00	-4.408513e+01
1.740000e-06	-4.663742e-07	-6.710941e-10	-3.314525e+00	-4.338484e+01
1.750000e-06	-4.205607e-07	-6.570282e-10	-2.988928e+00	-4.266789e+01
1.760000e-06	-3.748013e-07	-6.458376e-10	-2.663716e+00	-4.193364e+01
1.770000e-06	-3.290667e-07	-6.344526e-10	-2.338680e+00	-4.118139e+01
1.780000e-06	-2.832877e-07	-6.242221e-10	-2.013328e+00	-4.041045e+01
1.790000e-06	-2.374416e-07	-6.145433e-10	-1.687500e+00	-3.962007e+01
1.800000e-06	-1.916063e-07	-6.031901e-10	-1.361747e+00	-3.880949e+01
1.810000e-06	-1.457469e-07	-5.870397e-10	-1.035824e+00	-3.797795e+01
1.820000e-06	-9.991273e-08	-5.708612e-10	-7.100806e-01	-3.712464e+01
1.830000e-06	-5.416542e-08	-5.556534e-10	-3.849541e-01	-3.624877e+01
1.840000e-06	-8.383559e-09	-5.398343e-10	-5.958202e-02	-3.534952e+01
1.850000e-06	3.745905e-08	-5.241783e-10	2.662218e-01	-3.442607e+01
1.860000e-06	8.336068e-08	-5.102602e-10	5.924450e-01	-3.347762e+01
1.870000e-06	1.292432e-07	-4.992897e-10	9.185328e-01	-3.250338e+01
1.880000e-06	1.750888e-07	-4.902861e-10	1.244358e+00	-3.150256e+01
1.890000e-06	2.208943e-07	-4.756064e-10	1.569898e+00	-3.047442e+01
1.900000e-06	2.666802e-07	-4.525816e-10	1.895298e+00	-2.941822e+01
1.910000e-06	3.124795e-07	-4.288072e-10	2.220794e+00	-2.833329e+01
1.920000e-06	3.583065e-07	-4.080204e-10	2.546487e+00	-2.721900e+01
1.930000e-06	4.041066e-07	-3.868574e-10	2.871989e+00	-2.607478e+01
1.940000e-06	4.498086e-07	-3.655942e-10	3.196793e+00	-2.490010e+01
1.950000e-06	4.954701e-07	-3.466787e-10	3.521310e+00	-2.369453e+01
1.960000e-06	5.410870e-07	-3.335238e-10	3.845510e+00	-2.245771e+01
1.970000e-06	5.866882e-07	-3.189399e-10	4.169598e+00	-2.118936e+01
1.980000e-06	6.322428e-07	-2.970770e-10	4.493355e+00	-1.988931e+01
1.990000e-06	6.776874e-07	-2.725568e-10	4.816330e+00	-1.855747e+01
2.000000e-06	7.230649e-07	-2.482648e-10	5.138828e+00	-1.719387e+01
2.010000e-06	7.684302e-07	-2.253174e-10	5.461240e+00	-1.579864e+01
2.020000e-06	8.137872e-07	-2.014684e-10	5.783592e+00	-1.437204e+01
2.030000e-06	8.590878e-07	-1.761113e-10	6.105544e+00	-1.291445e+01
2.040000e-06	9.043287e-07	-1.542207e-10	6.427071e+00	-1.142636e+01
2.050000e-06	9.494622e-07	-1.351594e-10	6.747835e+00	-9.908398e+00
2.060000e-06	9.944955e-07	-1.103932e-10	7.067887e+00	-8.361320e+00
2.070000e-06	1.039486e-06	-8.255342e-11	7.387638e+00	-6.786007e+00
2.080000e-06	1.084365e-06	-5.556606e-11	7.706594e+00	-5.183470e+00
2.090000e-06	1.129121e-06	-3.316954e-11	8.024675e+00	-3.554847e+00
2.100000e-06	1.173743e-06	-9.115942e-12	8.341800e+00	-1.901401e+00
2.110000e-06	1.218271e-06	1.661452e-11	8.658262e+00	-2.245175e-01
2.120000e-06	1.262774e-06	4.167158e-11	8.974546e+00	1.474301e+00
2.130000e-06	1.307222e-06	6.481504e-11	9.290438e+00	3.193440e+00
2.140000e-06	1.351582e-06	9.039760e-11	9.605701e+00	4.931177e+00
2.150000e-06	1.395856e-06	1.217975e-10	9.920361e+00	6.685691e+00
2.160000e-06	1.440072e-06	1.505445e-10	1.023460e+01	8.455069e+00
2.170000e-06	1.484226e-06	1.737158e-10	1.054840e+01	1.023731e+01
2.180000e-06	1.528306e-06	1.947964e-10	1.086169e+01	1.203036e+01
2.190000e-06	1.572365e-06	2.176588e-10	1.117481e+01	1.383206e+01
2.200000e-06	1.616419e-06	2.421908e-10	1.148790e+01	1.564025e+01
2.210000e-06	1.660411e-06	2.657936e-10	1.180056e+01	1.745268e+01
2.220000e-06	1.704337e-06	2.928292e-10	1.211273e+01	1.926709e+01
2.230000e-06	1.748179e-06	3.272930e-10	1.242432e+01	2.108120e+01
2.240000e-06	1.791902e-06	3.644881e-10	1.273506e+01	2.289274e+01
2.250000e-06	1.835590e-06	3.964559e-10	1.304556e+01	2.469940e+01
2.260000e-06	1.879196e-06	4.225402e-10	1.335546e+01	2.649892e+01
2.270000e-06	1.922582e-06	4.470620e-10	1.366381e+01	2.828907e+01
2.280000e-06	1.965786e-06	4.690865e-10	1.397086e+01	3.006763e+01
2.290000e-06	2.008812e-06	4.917957e-10	1.427665e+01	3.183247e+01
2.300000e-06	2.051606e-06	5.161286e-10	1.458078e+01	3.358148e+01
2.310000e-06	2.094099e-06	5.441897e-10	1.488278e+01	3.531266e+01
2.320000e-06	2.136369e-06	5.758576e-10	1.518319e+01	3.702407e+01
2.330000e-06	2.178326e-06	6.074317e-10	1.548138e+01	3.871387e+01
2.340000e-06	2.219918e-06	6.332008e-10	1.577698e+01	4.038030e+01
2.350000e-06	2.261342e-06	6.545249e-10	1.607138e+01	4.202173e+01
2.360000e-06	2.302475e-06	6.754533e-10	1.636371e+01	4.363663e+01
2.370000e-06	2.343220e-06	6.987133e-10	1.665328e+01	4.522360e+01
2.380000e-06	2.383739e-06	7.233853e-10	1.694125e+01	4.678135e+01
2.390000e-06	2.424115e-06	7.493704e-10	1.722821e+01	4.830872e+01
2.400000e-06	2.464371e-06	7.769886e-10	1.751431e+01	4.980469e+01
2.410000e-06	2.504588e-06	8.034687e-10	1.780013e+01	5.126835e+01
2.420000e-06	2.544721e-06	8.266889e-10	1.808535e+01	5.269894e+01
2.430000e-06	2.584736e-06	8.471562e-10	1.836974e+01	5.409584e+01
2.440000e-06	2.624631e-06	8.685578e-10	1.865327e+01	5.545853e+01
2.450000e-06	2.664395e-06	8.890930e-10	1.893588e+01	5.678665e+01
2.460000e-06	2.703978e-06	9.087444e-10	1.921720e+01	5.807993e+01
2.470000e-06	2.743401e-06	9.280385e-10	1.949737e+01	5.933825e+01
2.480000e-06	2.782686e-06	9.468035e-10	1.977657e+01	6.056160e+01
2.490000e-06	2.821707e-06	9.652744e-10	2.005390e+01	6.175005e+01
2.500000e-06	2.860545e-06	9.821337e-10	2.032992e+01	6.290382e+01
2.510000e-06	2.899172e-06	9.983842e-10	2.060444e+01	6.402320e+01
2.520000e-06	2.937485e-06	1.020155e-09	2.087673e+01	6.510855e+01
2.530000e-06	2.975632e-06	1.044459e-09	2.114784e+01	6.616035e+01
2.540000e-06	3.013697e-06	1.064137e-09	2.141837e+01	6.717913e+01
2.550000e-06	3.051621e-06	1.077065e-09	2.168789e+01	6.816548e+01
2.560000e-06	3.089273e-06	1.087426e-09	2.195549e+01	6.912004e+01
2.570000e-06	3.126648e-06	1.096947e-09	2.222111e+01	7.004353e+01
2.580000e-06	3.163820e-06	1.105047e-09	2.248530e+01	7.093667e+01
2.590000e-06	3.200802e-06	1.115991e-09	2.274813e+01	7.180022e+01
2.600000e-06	3.237488e-06	1.133710e-09	2.300885e+01	7.263497e+01
2.610000e-06	3.273918e-06	1.154525e-09	2.326776e+01	7.344170e+01
2.620000e-06	3.310211e-06	1.172647e-09	2.352570e+01	7.422123e+01
2.630000e-06	3.346320e-06	1.186624e-09	2.378232e+01	7.497434e+01
2.640000e-06	3.382324e-06	1.195845e-09	2.403820e+01	7.570183e+01
2.650000e-06	3.418211e-06	1.200528e-09	2.429325e+01	7.640446e+01
2.660000e-06	3.453920e-06	1.199887e-09	2.454704e+01	7.708299e+01
2.670000e-06	3.489508e-06	1.198437e-09	2.479996e+01	7.773815e+01
2.680000e-06	3.524882e-06	1.205011e-09	2.505137e+01	7.837062e+01
2.690000e-06	3.559877e-06	1.221625e-09	2.530008e+01	7.898108e+01
2.700000e-06	3.594411e-06	1.240556e-09	2.554551e+01	7.957014e+01
2.710000e-06	3.628534e-06	1.257166e-09	2.578802e+01	8.013841e+01
2.720000e-06	3.662247e-06	1.268996e-09	2.602762e+01	8.068643e+01
2.730000e-06	3.695497e-06	1.275664e-09	2.626393e+01	8.121471e+01
2.740000e-06	3.728311e-06	1.275982e-09	2.649714e+01	8.172374e+01
2.750000e-06	3.760782e-06	1.274130e-09	2.672791e+01	8.221395e+01
2.760000e-06	3.793032e-06	1.275199e-09	2.695711e+01	8.268574e+01
2.770000e-06	3.825137e-06	1.280358e-09	2.718528e+01	8.313949e+01
2.780000e-06	3.857123e-06	1.291568e-09	2.741261e+01	8.357552e+01
2.790000e-06	3.888962e-06	1.304396e-09	2.763888e+01	8.399416e+01
2.800000e-06	3.920641e-06	1.311802e-09	2.786402e+01	8.439569e+01
2.810000e-06	3.952092e-06	1.312513e-09	2.808755e+01	8.478037e+01
2.820000e-06	3.983161e-06	1.313106e-09	2.830836e+01	8.514847e+01
2.830000e-06	4.013857e-06	1.317754e-09	2.852652e+01	8.550022e+01
2.840000e-06	4.044278e-06	1.321006e-09	2.874271e+01	8.583585e+01
2.850000e-06	4.074362e-06	1.321085e-09	2.895652e+01	8.615561e+01
2.860000e-06	4.104224e-06	1.322256e-09	2.916876e+01	8.645973e+01
2.870000e-06	4.133951e-06	1.327243e-09	2.938002e+01	8.674845e+01
2.880000e-06	4.163467e-06	1.333750e-09	2.958979e+01	8.702203e+01
2.890000e-06	4.192654e-06	1.335263e-09	2.979722e+01	8.728074e+01
2.900000e-06	4.221409e-06	1.335279e-09	3.000159e+01	8.752486e+01
