# Temperatura_=_13.16
# Concentracion g/m^3_=_4090.0
# C_Vs_to_Am_M_A/Vsm_=_65563218390.804596
# pendiente_HvsI_1/m_=_3716.3
# ordenada_HvsI_A/m_=_1297.0
# frecuencia_Hz_=_135087.17044386748

Tiempo_(s)	Campo_(V.s)	Magnetizacion_(V.s)	Campo_(kA/m)	Magnetizacion_(A/m)
0.000000e+00	-5.454455e-06	-1.252810e-09	-3.838738e+01	-8.366443e+01
1.000000e-08	-5.454579e-06	-1.253068e-09	-3.838825e+01	-8.349522e+01
2.000000e-08	-5.454493e-06	-1.247905e-09	-3.838765e+01	-8.333105e+01
3.000000e-08	-5.454145e-06	-1.240953e-09	-3.838520e+01	-8.317261e+01
4.000000e-08	-5.453442e-06	-1.237405e-09	-3.838025e+01	-8.302056e+01
5.000000e-08	-5.452162e-06	-1.236620e-09	-3.837125e+01	-8.287550e+01
6.000000e-08	-5.450294e-06	-1.237895e-09	-3.835810e+01	-8.273798e+01
7.000000e-08	-5.447829e-06	-1.249504e-09	-3.834075e+01	-8.260849e+01
8.000000e-08	-5.444714e-06	-1.282196e-09	-3.831883e+01	-8.248746e+01
9.000000e-08	-5.441108e-06	-1.272383e-09	-3.829345e+01	-8.237524e+01
1.000000e-07	-5.437066e-06	-1.193407e-09	-3.826500e+01	-8.227210e+01
1.100000e-07	-5.432791e-06	-1.173982e-09	-3.823492e+01	-8.217825e+01
1.200000e-07	-5.428442e-06	-1.269171e-09	-3.820431e+01	-8.209380e+01
1.300000e-07	-5.423833e-06	-1.285668e-09	-3.817187e+01	-8.201880e+01
1.400000e-07	-5.418634e-06	-1.205957e-09	-3.813528e+01	-8.195320e+01
1.500000e-07	-5.413021e-06	-1.138767e-09	-3.809578e+01	-8.189686e+01
1.600000e-07	-5.407291e-06	-1.289710e-09	-3.805545e+01	-8.184957e+01
1.700000e-07	-5.401136e-06	-1.307055e-09	-3.801213e+01	-8.181104e+01
1.800000e-07	-5.394232e-06	-1.193230e-09	-3.796355e+01	-8.178089e+01
1.900000e-07	-5.386929e-06	-1.109450e-09	-3.791215e+01	-8.175866e+01
2.000000e-07	-5.379617e-06	-1.240595e-09	-3.786069e+01	-8.174382e+01
2.100000e-07	-5.372112e-06	-1.264050e-09	-3.780787e+01	-8.173578e+01
2.200000e-07	-5.364268e-06	-1.181869e-09	-3.775267e+01	-8.173387e+01
2.300000e-07	-5.356167e-06	-1.197179e-09	-3.769565e+01	-8.173736e+01
2.400000e-07	-5.347744e-06	-1.287810e-09	-3.763637e+01	-8.174549e+01
2.500000e-07	-5.338696e-06	-1.273674e-09	-3.757270e+01	-8.175742e+01
2.600000e-07	-5.328938e-06	-1.216616e-09	-3.750402e+01	-8.177228e+01
2.700000e-07	-5.318614e-06	-1.302887e-09	-3.743137e+01	-8.178920e+01
2.800000e-07	-5.307805e-06	-1.317667e-09	-3.735529e+01	-8.180723e+01
2.900000e-07	-5.296457e-06	-1.230733e-09	-3.727543e+01	-8.182545e+01
3.000000e-07	-5.284623e-06	-1.203994e-09	-3.719214e+01	-8.184291e+01
3.100000e-07	-5.272513e-06	-1.324595e-09	-3.710692e+01	-8.185866e+01
3.200000e-07	-5.260035e-06	-1.296882e-09	-3.701909e+01	-8.187176e+01
3.300000e-07	-5.247133e-06	-1.227282e-09	-3.692829e+01	-8.188128e+01
3.400000e-07	-5.233842e-06	-1.238008e-09	-3.683475e+01	-8.188634e+01
3.500000e-07	-5.220155e-06	-1.326331e-09	-3.673842e+01	-8.188605e+01
3.600000e-07	-5.205930e-06	-1.281817e-09	-3.663831e+01	-8.187959e+01
3.700000e-07	-5.191477e-06	-1.269520e-09	-3.653660e+01	-8.186618e+01
3.800000e-07	-5.176660e-06	-1.250755e-09	-3.643232e+01	-8.184507e+01
3.900000e-07	-5.160993e-06	-1.249509e-09	-3.632206e+01	-8.181560e+01
4.000000e-07	-5.144769e-06	-1.236895e-09	-3.620787e+01	-8.177714e+01
4.100000e-07	-5.128193e-06	-1.280615e-09	-3.609122e+01	-8.172917e+01
4.200000e-07	-5.111315e-06	-1.241082e-09	-3.597243e+01	-8.167119e+01
4.300000e-07	-5.094063e-06	-1.216858e-09	-3.585101e+01	-8.160282e+01
4.400000e-07	-5.076593e-06	-1.260427e-09	-3.572807e+01	-8.152373e+01
4.500000e-07	-5.058894e-06	-1.294439e-09	-3.560350e+01	-8.143369e+01
4.600000e-07	-5.040641e-06	-1.232835e-09	-3.547504e+01	-8.133252e+01
4.700000e-07	-5.022032e-06	-1.203629e-09	-3.534408e+01	-8.122016e+01
4.800000e-07	-5.003123e-06	-1.233155e-09	-3.521100e+01	-8.109660e+01
4.900000e-07	-4.983785e-06	-1.241257e-09	-3.507490e+01	-8.096193e+01
5.000000e-07	-4.964144e-06	-1.222351e-09	-3.493667e+01	-8.081629e+01
5.100000e-07	-4.944362e-06	-1.199863e-09	-3.479745e+01	-8.065992e+01
5.200000e-07	-4.924383e-06	-1.205279e-09	-3.465684e+01	-8.049312e+01
5.300000e-07	-4.904136e-06	-1.226750e-09	-3.451435e+01	-8.031627e+01
5.400000e-07	-4.883621e-06	-1.243261e-09	-3.436997e+01	-8.012978e+01
5.500000e-07	-4.862726e-06	-1.202178e-09	-3.422291e+01	-7.993416e+01
5.600000e-07	-4.841370e-06	-1.187042e-09	-3.407261e+01	-7.972993e+01
5.700000e-07	-4.819660e-06	-1.203257e-09	-3.391982e+01	-7.951770e+01
5.800000e-07	-4.797681e-06	-1.216415e-09	-3.376514e+01	-7.929807e+01
5.900000e-07	-4.775378e-06	-1.176113e-09	-3.360818e+01	-7.907172e+01
6.000000e-07	-4.752775e-06	-1.165748e-09	-3.344910e+01	-7.883933e+01
6.100000e-07	-4.729846e-06	-1.179695e-09	-3.328773e+01	-7.860159e+01
6.200000e-07	-4.706501e-06	-1.207432e-09	-3.312343e+01	-7.835923e+01
6.300000e-07	-4.682847e-06	-1.188830e-09	-3.295696e+01	-7.811296e+01
6.400000e-07	-4.659048e-06	-1.169674e-09	-3.278947e+01	-7.786351e+01
6.500000e-07	-4.635032e-06	-1.162956e-09	-3.262045e+01	-7.761158e+01
6.600000e-07	-4.610685e-06	-1.186825e-09	-3.244910e+01	-7.735787e+01
6.700000e-07	-4.585971e-06	-1.177146e-09	-3.227516e+01	-7.710305e+01
6.800000e-07	-4.560861e-06	-1.157030e-09	-3.209844e+01	-7.684777e+01
6.900000e-07	-4.535221e-06	-1.145606e-09	-3.191800e+01	-7.659265e+01
7.000000e-07	-4.508898e-06	-1.168702e-09	-3.173274e+01	-7.633826e+01
7.100000e-07	-4.481938e-06	-1.171216e-09	-3.154300e+01	-7.608513e+01
7.200000e-07	-4.454606e-06	-1.155811e-09	-3.135064e+01	-7.583376e+01
7.300000e-07	-4.427136e-06	-1.137989e-09	-3.115731e+01	-7.558457e+01
7.400000e-07	-4.399486e-06	-1.151383e-09	-3.096272e+01	-7.533796e+01
7.500000e-07	-4.371616e-06	-1.163626e-09	-3.076658e+01	-7.509426e+01
7.600000e-07	-4.343611e-06	-1.154297e-09	-3.056948e+01	-7.485374e+01
7.700000e-07	-4.315410e-06	-1.136481e-09	-3.037101e+01	-7.461662e+01
7.800000e-07	-4.286963e-06	-1.137624e-09	-3.017081e+01	-7.438306e+01
7.900000e-07	-4.258138e-06	-1.147969e-09	-2.996794e+01	-7.415316e+01
8.000000e-07	-4.228937e-06	-1.142287e-09	-2.976243e+01	-7.392696e+01
8.100000e-07	-4.199454e-06	-1.125895e-09	-2.955493e+01	-7.370446e+01
8.200000e-07	-4.169730e-06	-1.117394e-09	-2.934575e+01	-7.348560e+01
8.300000e-07	-4.139745e-06	-1.128617e-09	-2.913471e+01	-7.327025e+01
8.400000e-07	-4.109422e-06	-1.132121e-09	-2.892131e+01	-7.305827e+01
8.500000e-07	-4.078821e-06	-1.126892e-09	-2.870594e+01	-7.284943e+01
8.600000e-07	-4.047877e-06	-1.117779e-09	-2.848816e+01	-7.264350e+01
8.700000e-07	-4.016624e-06	-1.126571e-09	-2.826821e+01	-7.244019e+01
8.800000e-07	-3.985106e-06	-1.126050e-09	-2.804639e+01	-7.223919e+01
8.900000e-07	-3.953443e-06	-1.115246e-09	-2.782356e+01	-7.204014e+01
9.000000e-07	-3.921719e-06	-1.095201e-09	-2.760029e+01	-7.184268e+01
9.100000e-07	-3.889834e-06	-1.094204e-09	-2.737589e+01	-7.164643e+01
9.200000e-07	-3.857758e-06	-1.097676e-09	-2.715014e+01	-7.145098e+01
9.300000e-07	-3.825409e-06	-1.100944e-09	-2.692248e+01	-7.125593e+01
9.400000e-07	-3.792643e-06	-1.093925e-09	-2.669188e+01	-7.106085e+01
9.500000e-07	-3.759447e-06	-1.099728e-09	-2.645825e+01	-7.086534e+01
9.600000e-07	-3.725953e-06	-1.105032e-09	-2.622252e+01	-7.066899e+01
9.700000e-07	-3.691990e-06	-1.101297e-09	-2.598350e+01	-7.047139e+01
9.800000e-07	-3.657491e-06	-1.079017e-09	-2.574070e+01	-7.027217e+01
9.900000e-07	-3.622622e-06	-1.064647e-09	-2.549530e+01	-7.007094e+01
1.000000e-06	-3.587420e-06	-1.058569e-09	-2.524756e+01	-6.986736e+01
1.010000e-06	-3.551926e-06	-1.060225e-09	-2.499776e+01	-6.966110e+01
1.020000e-06	-3.516171e-06	-1.058621e-09	-2.474612e+01	-6.945187e+01
1.030000e-06	-3.480308e-06	-1.061966e-09	-2.449373e+01	-6.923937e+01
1.040000e-06	-3.444390e-06	-1.068673e-09	-2.424094e+01	-6.902336e+01
1.050000e-06	-3.408346e-06	-1.071423e-09	-2.398727e+01	-6.880364e+01
1.060000e-06	-3.372083e-06	-1.058598e-09	-2.373206e+01	-6.858001e+01
1.070000e-06	-3.335575e-06	-1.037978e-09	-2.347512e+01	-6.835231e+01
1.080000e-06	-3.298833e-06	-1.022841e-09	-2.321654e+01	-6.812044e+01
1.090000e-06	-3.261814e-06	-1.019123e-09	-2.295600e+01	-6.788428e+01
1.100000e-06	-3.224501e-06	-1.022567e-09	-2.269340e+01	-6.764379e+01
1.110000e-06	-3.186970e-06	-1.025636e-09	-2.242927e+01	-6.739893e+01
1.120000e-06	-3.149254e-06	-1.030415e-09	-2.216383e+01	-6.714969e+01
1.130000e-06	-3.111287e-06	-1.031133e-09	-2.189663e+01	-6.689610e+01
1.140000e-06	-3.073088e-06	-1.026670e-09	-2.162779e+01	-6.663819e+01
1.150000e-06	-3.034713e-06	-1.011310e-09	-2.135771e+01	-6.637602e+01
1.160000e-06	-2.996103e-06	-9.959581e-10	-2.108599e+01	-6.610969e+01
1.170000e-06	-2.957188e-06	-9.845951e-10	-2.081211e+01	-6.583928e+01
1.180000e-06	-2.918107e-06	-9.805931e-10	-2.053707e+01	-6.556491e+01
1.190000e-06	-2.878951e-06	-9.746961e-10	-2.026149e+01	-6.528669e+01
1.200000e-06	-2.839568e-06	-9.741786e-10	-1.998432e+01	-6.500475e+01
1.210000e-06	-2.800033e-06	-9.775847e-10	-1.970608e+01	-6.471922e+01
1.220000e-06	-2.760394e-06	-9.817381e-10	-1.942711e+01	-6.443021e+01
1.230000e-06	-2.720609e-06	-9.763906e-10	-1.914711e+01	-6.413787e+01
1.240000e-06	-2.680744e-06	-9.662360e-10	-1.886655e+01	-6.384231e+01
1.250000e-06	-2.640804e-06	-9.536537e-10	-1.858546e+01	-6.354365e+01
1.260000e-06	-2.600754e-06	-9.494201e-10	-1.830359e+01	-6.324198e+01
1.270000e-06	-2.560488e-06	-9.458417e-10	-1.802021e+01	-6.293739e+01
1.280000e-06	-2.520087e-06	-9.429852e-10	-1.773588e+01	-6.262997e+01
1.290000e-06	-2.479476e-06	-9.409147e-10	-1.745007e+01	-6.231976e+01
1.300000e-06	-2.438540e-06	-9.412664e-10	-1.716197e+01	-6.200681e+01
1.310000e-06	-2.397419e-06	-9.393134e-10	-1.687257e+01	-6.169115e+01
1.320000e-06	-2.356138e-06	-9.329646e-10	-1.658204e+01	-6.137276e+01
1.330000e-06	-2.314596e-06	-9.221666e-10	-1.628968e+01	-6.105164e+01
1.340000e-06	-2.272639e-06	-9.165594e-10	-1.599439e+01	-6.072773e+01
1.350000e-06	-2.230275e-06	-9.180109e-10	-1.569624e+01	-6.040098e+01
1.360000e-06	-2.187645e-06	-9.197650e-10	-1.539622e+01	-6.007131e+01
1.370000e-06	-2.144763e-06	-9.156090e-10	-1.509442e+01	-5.973860e+01
1.380000e-06	-2.101688e-06	-9.074112e-10	-1.479127e+01	-5.940273e+01
1.390000e-06	-2.058494e-06	-8.998852e-10	-1.448728e+01	-5.906356e+01
1.400000e-06	-2.015191e-06	-8.924479e-10	-1.418252e+01	-5.872093e+01
1.410000e-06	-1.971721e-06	-8.846084e-10	-1.387659e+01	-5.837464e+01
1.420000e-06	-1.928038e-06	-8.788888e-10	-1.356916e+01	-5.802450e+01
1.430000e-06	-1.884295e-06	-8.772906e-10	-1.326130e+01	-5.767030e+01
1.440000e-06	-1.840530e-06	-8.773609e-10	-1.295329e+01	-5.731181e+01
1.450000e-06	-1.796639e-06	-8.753982e-10	-1.264440e+01	-5.694878e+01
1.460000e-06	-1.752674e-06	-8.674596e-10	-1.233498e+01	-5.658098e+01
1.470000e-06	-1.708688e-06	-8.583196e-10	-1.202541e+01	-5.620812e+01
1.480000e-06	-1.664656e-06	-8.514924e-10	-1.171552e+01	-5.582995e+01
1.490000e-06	-1.620524e-06	-8.490860e-10	-1.140493e+01	-5.544618e+01
1.500000e-06	-1.576222e-06	-8.451730e-10	-1.109314e+01	-5.505654e+01
1.510000e-06	-1.531830e-06	-8.428246e-10	-1.078072e+01	-5.466072e+01
1.520000e-06	-1.487376e-06	-8.409268e-10	-1.046786e+01	-5.425843e+01
1.530000e-06	-1.442803e-06	-8.352430e-10	-1.015417e+01	-5.384938e+01
1.540000e-06	-1.398221e-06	-8.234383e-10	-9.840407e+00	-5.343325e+01
1.550000e-06	-1.353506e-06	-8.125266e-10	-9.525708e+00	-5.300974e+01
1.560000e-06	-1.308643e-06	-8.025623e-10	-9.209970e+00	-5.257853e+01
1.570000e-06	-1.263696e-06	-7.974843e-10	-8.893645e+00	-5.213930e+01
1.580000e-06	-1.218528e-06	-7.968258e-10	-8.575761e+00	-5.169174e+01
1.590000e-06	-1.173278e-06	-7.944267e-10	-8.257299e+00	-5.123551e+01
1.600000e-06	-1.128005e-06	-7.851208e-10	-7.938677e+00	-5.077028e+01
1.610000e-06	-1.082614e-06	-7.734409e-10	-7.619228e+00	-5.029569e+01
1.620000e-06	-1.037157e-06	-7.615804e-10	-7.299310e+00	-4.981141e+01
1.630000e-06	-9.916724e-07	-7.512990e-10	-6.979196e+00	-4.931705e+01
1.640000e-06	-9.461000e-07	-7.420454e-10	-6.658466e+00	-4.881226e+01
1.650000e-06	-9.004401e-07	-7.359078e-10	-6.337121e+00	-4.829662e+01
1.660000e-06	-8.547424e-07	-7.294811e-10	-6.015509e+00	-4.776975e+01
1.670000e-06	-8.089689e-07	-7.212044e-10	-5.693364e+00	-4.723122e+01
1.680000e-06	-7.630473e-07	-7.128082e-10	-5.370177e+00	-4.668058e+01
1.690000e-06	-7.170694e-07	-7.048795e-10	-5.046594e+00	-4.611737e+01
1.700000e-06	-6.711386e-07	-6.952632e-10	-4.723342e+00	-4.554112e+01
1.710000e-06	-6.252000e-07	-6.835438e-10	-4.400035e+00	-4.495132e+01
1.720000e-06	-5.792979e-07	-6.723814e-10	-4.076985e+00	-4.434743e+01
1.730000e-06	-5.333664e-07	-6.647922e-10	-3.753728e+00	-4.372891e+01
1.740000e-06	-4.872670e-07	-6.582450e-10	-3.429289e+00	-4.309517e+01
1.750000e-06	-4.410754e-07	-6.467981e-10	-3.104202e+00	-4.244562e+01
1.760000e-06	-3.949776e-07	-6.351728e-10	-2.779775e+00	-4.177963e+01
1.770000e-06	-3.487811e-07	-6.258128e-10	-2.454653e+00	-4.109653e+01
1.780000e-06	-3.025467e-07	-6.162615e-10	-2.129265e+00	-4.039567e+01
1.790000e-06	-2.564202e-07	-6.031270e-10	-1.804635e+00	-3.967634e+01
1.800000e-06	-2.102009e-07	-5.887681e-10	-1.479353e+00	-3.893781e+01
1.810000e-06	-1.639613e-07	-5.729853e-10	-1.153927e+00	-3.817937e+01
1.820000e-06	-1.178106e-07	-5.611495e-10	-8.291277e-01	-3.740024e+01
1.830000e-06	-7.169651e-08	-5.509572e-10	-5.045860e-01	-3.659968e+01
1.840000e-06	-2.550789e-08	-5.393103e-10	-1.795195e-01	-3.577690e+01
1.850000e-06	2.072664e-08	-5.263938e-10	1.458700e-01	-3.493114e+01
1.860000e-06	6.710029e-08	-5.125961e-10	4.722387e-01	-3.406161e+01
1.870000e-06	1.134524e-07	-4.992392e-10	7.984557e-01	-3.316754e+01
1.880000e-06	1.597516e-07	-4.878460e-10	1.124300e+00	-3.224817e+01
1.890000e-06	2.060545e-07	-4.727541e-10	1.450172e+00	-3.130276e+01
1.900000e-06	2.522847e-07	-4.531673e-10	1.775530e+00	-3.033057e+01
1.910000e-06	2.985504e-07	-4.330116e-10	2.101139e+00	-2.933092e+01
1.920000e-06	3.448002e-07	-4.146663e-10	2.426636e+00	-2.830313e+01
1.930000e-06	3.909798e-07	-3.980361e-10	2.751639e+00	-2.724660e+01
1.940000e-06	4.370730e-07	-3.816178e-10	3.076034e+00	-2.616073e+01
1.950000e-06	4.831624e-07	-3.633084e-10	3.400402e+00	-2.504502e+01
1.960000e-06	5.291989e-07	-3.463264e-10	3.724398e+00	-2.389901e+01
1.970000e-06	5.751940e-07	-3.288839e-10	4.048102e+00	-2.272230e+01
1.980000e-06	6.211675e-07	-3.103434e-10	4.371655e+00	-2.151456e+01
1.990000e-06	6.670847e-07	-2.922005e-10	4.694811e+00	-2.027558e+01
2.000000e-06	7.129726e-07	-2.729956e-10	5.017761e+00	-1.900518e+01
2.010000e-06	7.587644e-07	-2.540336e-10	5.340035e+00	-1.770332e+01
2.020000e-06	8.045165e-07	-2.337603e-10	5.662029e+00	-1.637002e+01
2.030000e-06	8.502779e-07	-2.108756e-10	5.984089e+00	-1.500543e+01
2.040000e-06	8.959770e-07	-1.875585e-10	6.305710e+00	-1.360978e+01
2.050000e-06	9.415462e-07	-1.649118e-10	6.626418e+00	-1.218343e+01
2.060000e-06	9.871094e-07	-1.434922e-10	6.947083e+00	-1.072684e+01
2.070000e-06	1.032639e-06	-1.233366e-10	7.267511e+00	-9.240587e+00
2.080000e-06	1.078009e-06	-1.021209e-10	7.586815e+00	-7.725370e+00
2.090000e-06	1.123323e-06	-8.050611e-11	7.905726e+00	-6.181996e+00
2.100000e-06	1.168549e-06	-5.647004e-11	8.224017e+00	-4.611395e+00
2.110000e-06	1.213632e-06	-2.878428e-11	8.541304e+00	-3.014608e+00
2.120000e-06	1.258665e-06	7.681880e-13	8.858235e+00	-1.392795e+00
2.130000e-06	1.303551e-06	2.805110e-11	9.174138e+00	2.527741e-01
2.140000e-06	1.348330e-06	5.158626e-11	9.489285e+00	1.920721e+00
2.150000e-06	1.393048e-06	7.309727e-11	9.803999e+00	3.609561e+00
2.160000e-06	1.437582e-06	9.301110e-11	1.011742e+01	5.317710e+00
2.170000e-06	1.481997e-06	1.132884e-10	1.043001e+01	7.043489e+00
2.180000e-06	1.526295e-06	1.370305e-10	1.074177e+01	8.785131e+00
2.190000e-06	1.570465e-06	1.633208e-10	1.105262e+01	1.054079e+01
2.200000e-06	1.614628e-06	1.932128e-10	1.136344e+01	1.230854e+01
2.210000e-06	1.658785e-06	2.234278e-10	1.167420e+01	1.408639e+01
2.220000e-06	1.702864e-06	2.510417e-10	1.198443e+01	1.587230e+01
2.230000e-06	1.746830e-06	2.768780e-10	1.229384e+01	1.766417e+01
2.240000e-06	1.790706e-06	3.047218e-10	1.260264e+01	1.945988e+01
2.250000e-06	1.834570e-06	3.318037e-10	1.291134e+01	2.125725e+01
2.260000e-06	1.878387e-06	3.564763e-10	1.321972e+01	2.305412e+01
2.270000e-06	1.922117e-06	3.832838e-10	1.352748e+01	2.484829e+01
2.280000e-06	1.965771e-06	4.125274e-10	1.383471e+01	2.663757e+01
2.290000e-06	2.009383e-06	4.432797e-10	1.414164e+01	2.841980e+01
2.300000e-06	2.052865e-06	4.709198e-10	1.444766e+01	3.019281e+01
2.310000e-06	2.096195e-06	4.965205e-10	1.475261e+01	3.195450e+01
2.320000e-06	2.139334e-06	5.240101e-10	1.505621e+01	3.370277e+01
2.330000e-06	2.182237e-06	5.533706e-10	1.535816e+01	3.543561e+01
2.340000e-06	2.224868e-06	5.824976e-10	1.565818e+01	3.715104e+01
2.350000e-06	2.267178e-06	6.045094e-10	1.595596e+01	3.884717e+01
2.360000e-06	2.309229e-06	6.258381e-10	1.625190e+01	4.052218e+01
2.370000e-06	2.351000e-06	6.485220e-10	1.654588e+01	4.217433e+01
2.380000e-06	2.392469e-06	6.725187e-10	1.683773e+01	4.380198e+01
2.390000e-06	2.433724e-06	6.945840e-10	1.712807e+01	4.540358e+01
2.400000e-06	2.474661e-06	7.141075e-10	1.741618e+01	4.697768e+01
2.410000e-06	2.515169e-06	7.392906e-10	1.770126e+01	4.852295e+01
2.420000e-06	2.555499e-06	7.694431e-10	1.798510e+01	5.003816e+01
2.430000e-06	2.595712e-06	8.039660e-10	1.826811e+01	5.152219e+01
2.440000e-06	2.635787e-06	8.345482e-10	1.855015e+01	5.297406e+01
2.450000e-06	2.675752e-06	8.551401e-10	1.883142e+01	5.439288e+01
2.460000e-06	2.715654e-06	8.687950e-10	1.911224e+01	5.577790e+01
2.470000e-06	2.755417e-06	8.804588e-10	1.939209e+01	5.712846e+01
2.480000e-06	2.795014e-06	8.930545e-10	1.967076e+01	5.844404e+01
2.490000e-06	2.834582e-06	9.074502e-10	1.994924e+01	5.972424e+01
2.500000e-06	2.874005e-06	9.275174e-10	2.022669e+01	6.096875e+01
2.510000e-06	2.913120e-06	9.563585e-10	2.050197e+01	6.217738e+01
2.520000e-06	2.952046e-06	9.885637e-10	2.077592e+01	6.335005e+01
2.530000e-06	2.990750e-06	1.017061e-09	2.104831e+01	6.448676e+01
2.540000e-06	3.029097e-06	1.035606e-09	2.131819e+01	6.558764e+01
2.550000e-06	3.067242e-06	1.044884e-09	2.158665e+01	6.665288e+01
2.560000e-06	3.105300e-06	1.048849e-09	2.185449e+01	6.768276e+01
2.570000e-06	3.143171e-06	1.054350e-09	2.212102e+01	6.867766e+01
2.580000e-06	3.180746e-06	1.062115e-09	2.238547e+01	6.963799e+01
2.590000e-06	3.218110e-06	1.076270e-09	2.264843e+01	7.056426e+01
2.600000e-06	3.255316e-06	1.098677e-09	2.291028e+01	7.145702e+01
2.610000e-06	3.292250e-06	1.125592e-09	2.317021e+01	7.231689e+01
2.620000e-06	3.328956e-06	1.146058e-09	2.342854e+01	7.314451e+01
2.630000e-06	3.365465e-06	1.155214e-09	2.368548e+01	7.394056e+01
2.640000e-06	3.401722e-06	1.158385e-09	2.394065e+01	7.470578e+01
2.650000e-06	3.437811e-06	1.160150e-09	2.419464e+01	7.544089e+01
2.660000e-06	3.473743e-06	1.161929e-09	2.444752e+01	7.614666e+01
2.670000e-06	3.509518e-06	1.164545e-09	2.469930e+01	7.682387e+01
2.680000e-06	3.545148e-06	1.170827e-09	2.495006e+01	7.747329e+01
2.690000e-06	3.580608e-06	1.183551e-09	2.519962e+01	7.809571e+01
2.700000e-06	3.615809e-06	1.200596e-09	2.544736e+01	7.869190e+01
2.710000e-06	3.650595e-06	1.215564e-09	2.569217e+01	7.926263e+01
2.720000e-06	3.685091e-06	1.226589e-09	2.593495e+01	7.980867e+01
2.730000e-06	3.719359e-06	1.233529e-09	2.617612e+01	8.033075e+01
2.740000e-06	3.753148e-06	1.236496e-09	2.641392e+01	8.082962e+01
2.750000e-06	3.786353e-06	1.237347e-09	2.664761e+01	8.130598e+01
2.760000e-06	3.819096e-06	1.240067e-09	2.687805e+01	8.176052e+01
2.770000e-06	3.851479e-06	1.241494e-09	2.710596e+01	8.219392e+01
2.780000e-06	3.883548e-06	1.244055e-09	2.733165e+01	8.260681e+01
2.790000e-06	3.915419e-06	1.250081e-09	2.755595e+01	8.299982e+01
2.800000e-06	3.947217e-06	1.257788e-09	2.777974e+01	8.337356e+01
2.810000e-06	3.978903e-06	1.262579e-09	2.800274e+01	8.372860e+01
2.820000e-06	4.010443e-06	1.264306e-09	2.822471e+01	8.406552e+01
2.830000e-06	4.041725e-06	1.265270e-09	2.844487e+01	8.438484e+01
2.840000e-06	4.072644e-06	1.266280e-09	2.866247e+01	8.468709e+01
2.850000e-06	4.103270e-06	1.267963e-09	2.887801e+01	8.497279e+01
2.860000e-06	4.133586e-06	1.268576e-09	2.909137e+01	8.524242e+01
2.870000e-06	4.163663e-06	1.269499e-09	2.930304e+01	8.549648e+01
2.880000e-06	4.193485e-06	1.276140e-09	2.951292e+01	8.573543e+01
2.890000e-06	4.222960e-06	1.281541e-09	2.972036e+01	8.595974e+01
2.900000e-06	4.252106e-06	1.282724e-09	2.992549e+01	8.616988e+01
