# Temperatura_=_12.3
# Concentracion g/m^3_=_4090.0
# C_Vs_to_Am_M_A/Vsm_=_65563218390.804596
# pendiente_HvsI_1/m_=_3716.3
# ordenada_HvsI_A/m_=_1297.0
# frecuencia_Hz_=_135087.22772648185

Tiempo_(s)	Campo_(V.s)	Magnetizacion_(V.s)	Campo_(kA/m)	Magnetizacion_(A/m)
0.000000e+00	-5.398206e-06	-1.320417e-09	-3.838904e+01	-8.866129e+01
1.000000e-08	-5.398405e-06	-1.310332e-09	-3.839045e+01	-8.854539e+01
2.000000e-08	-5.398302e-06	-1.303397e-09	-3.838972e+01	-8.843761e+01
3.000000e-08	-5.397942e-06	-1.299725e-09	-3.838716e+01	-8.833868e+01
4.000000e-08	-5.397193e-06	-1.299560e-09	-3.838183e+01	-8.824924e+01
5.000000e-08	-5.395954e-06	-1.301626e-09	-3.837302e+01	-8.816984e+01
6.000000e-08	-5.394148e-06	-1.304330e-09	-3.836018e+01	-8.810096e+01
7.000000e-08	-5.391613e-06	-1.313774e-09	-3.834215e+01	-8.804296e+01
8.000000e-08	-5.388477e-06	-1.311082e-09	-3.831985e+01	-8.799615e+01
9.000000e-08	-5.384840e-06	-1.275130e-09	-3.829399e+01	-8.796068e+01
1.000000e-07	-5.380741e-06	-1.265074e-09	-3.826484e+01	-8.793665e+01
1.100000e-07	-5.376419e-06	-1.342369e-09	-3.823410e+01	-8.792400e+01
1.200000e-07	-5.372020e-06	-1.333823e-09	-3.820282e+01	-8.792261e+01
1.300000e-07	-5.367368e-06	-1.278480e-09	-3.816974e+01	-8.793224e+01
1.400000e-07	-5.362246e-06	-1.254279e-09	-3.813331e+01	-8.795252e+01
1.500000e-07	-5.356713e-06	-1.342433e-09	-3.809396e+01	-8.798302e+01
1.600000e-07	-5.350887e-06	-1.358704e-09	-3.805253e+01	-8.802317e+01
1.700000e-07	-5.344725e-06	-1.250912e-09	-3.800871e+01	-8.807233e+01
1.800000e-07	-5.338120e-06	-1.261415e-09	-3.796174e+01	-8.812977e+01
1.900000e-07	-5.331111e-06	-1.328692e-09	-3.791190e+01	-8.819466e+01
2.000000e-07	-5.323868e-06	-1.390822e-09	-3.786039e+01	-8.826611e+01
2.100000e-07	-5.316373e-06	-1.316054e-09	-3.780709e+01	-8.834316e+01
2.200000e-07	-5.308623e-06	-1.357733e-09	-3.775197e+01	-8.842477e+01
2.300000e-07	-5.300592e-06	-1.404684e-09	-3.769486e+01	-8.850988e+01
2.400000e-07	-5.292235e-06	-1.423284e-09	-3.763543e+01	-8.859736e+01
2.500000e-07	-5.283310e-06	-1.368078e-09	-3.757196e+01	-8.868607e+01
2.600000e-07	-5.273608e-06	-1.420863e-09	-3.750297e+01	-8.877483e+01
2.700000e-07	-5.263249e-06	-1.454504e-09	-3.742930e+01	-8.886247e+01
2.800000e-07	-5.252497e-06	-1.407120e-09	-3.735284e+01	-8.894779e+01
2.900000e-07	-5.241359e-06	-1.379406e-09	-3.727363e+01	-8.902963e+01
3.000000e-07	-5.229806e-06	-1.428419e-09	-3.719147e+01	-8.910684e+01
3.100000e-07	-5.217866e-06	-1.422206e-09	-3.710656e+01	-8.917828e+01
3.200000e-07	-5.205569e-06	-1.380276e-09	-3.701911e+01	-8.924287e+01
3.300000e-07	-5.192805e-06	-1.420394e-09	-3.692834e+01	-8.929958e+01
3.400000e-07	-5.179508e-06	-1.435164e-09	-3.683378e+01	-8.934744e+01
3.500000e-07	-5.165859e-06	-1.409493e-09	-3.673672e+01	-8.938552e+01
3.600000e-07	-5.151851e-06	-1.407798e-09	-3.663710e+01	-8.941298e+01
3.700000e-07	-5.137464e-06	-1.437258e-09	-3.653479e+01	-8.942908e+01
3.800000e-07	-5.122615e-06	-1.381860e-09	-3.642919e+01	-8.943313e+01
3.900000e-07	-5.107093e-06	-1.371014e-09	-3.631881e+01	-8.942455e+01
4.000000e-07	-5.090904e-06	-1.398069e-09	-3.620368e+01	-8.940286e+01
4.100000e-07	-5.074408e-06	-1.404482e-09	-3.608637e+01	-8.936765e+01
4.200000e-07	-5.057617e-06	-1.360172e-09	-3.596696e+01	-8.931864e+01
4.300000e-07	-5.040427e-06	-1.391601e-09	-3.584472e+01	-8.925563e+01
4.400000e-07	-5.022979e-06	-1.398576e-09	-3.572063e+01	-8.917854e+01
4.500000e-07	-5.005340e-06	-1.384527e-09	-3.559519e+01	-8.908737e+01
4.600000e-07	-4.987332e-06	-1.356338e-09	-3.546713e+01	-8.898223e+01
4.700000e-07	-4.968830e-06	-1.368988e-09	-3.533555e+01	-8.886332e+01
4.800000e-07	-4.949960e-06	-1.353278e-09	-3.520136e+01	-8.873093e+01
4.900000e-07	-4.930726e-06	-1.364696e-09	-3.506458e+01	-8.858544e+01
5.000000e-07	-4.911175e-06	-1.354839e-09	-3.492554e+01	-8.842730e+01
5.100000e-07	-4.891441e-06	-1.349666e-09	-3.478521e+01	-8.825706e+01
5.200000e-07	-4.871523e-06	-1.349244e-09	-3.464356e+01	-8.807531e+01
5.300000e-07	-4.851279e-06	-1.367718e-09	-3.449960e+01	-8.788271e+01
5.400000e-07	-4.830746e-06	-1.349459e-09	-3.435358e+01	-8.767999e+01
5.500000e-07	-4.809920e-06	-1.340942e-09	-3.420547e+01	-8.746789e+01
5.600000e-07	-4.788721e-06	-1.342423e-09	-3.405472e+01	-8.724722e+01
5.700000e-07	-4.767274e-06	-1.345065e-09	-3.390220e+01	-8.701880e+01
5.800000e-07	-4.745496e-06	-1.335545e-09	-3.374733e+01	-8.678347e+01
5.900000e-07	-4.723417e-06	-1.325523e-09	-3.359032e+01	-8.654208e+01
6.000000e-07	-4.700989e-06	-1.313893e-09	-3.343082e+01	-8.629548e+01
6.100000e-07	-4.678203e-06	-1.321638e-09	-3.326878e+01	-8.604452e+01
6.200000e-07	-4.655054e-06	-1.334896e-09	-3.310416e+01	-8.579001e+01
6.300000e-07	-4.631573e-06	-1.320835e-09	-3.293717e+01	-8.553277e+01
6.400000e-07	-4.607947e-06	-1.315862e-09	-3.276915e+01	-8.527357e+01
6.500000e-07	-4.584128e-06	-1.324321e-09	-3.259977e+01	-8.501313e+01
6.600000e-07	-4.560072e-06	-1.326382e-09	-3.242870e+01	-8.475214e+01
6.700000e-07	-4.535672e-06	-1.304181e-09	-3.225517e+01	-8.449125e+01
6.800000e-07	-4.510820e-06	-1.295240e-09	-3.207845e+01	-8.423102e+01
6.900000e-07	-4.485493e-06	-1.285780e-09	-3.189833e+01	-8.397198e+01
7.000000e-07	-4.459623e-06	-1.289700e-09	-3.171436e+01	-8.371458e+01
7.100000e-07	-4.433204e-06	-1.282952e-09	-3.152648e+01	-8.345921e+01
7.200000e-07	-4.406358e-06	-1.282721e-09	-3.133557e+01	-8.320618e+01
7.300000e-07	-4.379071e-06	-1.279684e-09	-3.114152e+01	-8.295576e+01
7.400000e-07	-4.351435e-06	-1.291900e-09	-3.094499e+01	-8.270811e+01
7.500000e-07	-4.323653e-06	-1.282659e-09	-3.074741e+01	-8.246335e+01
7.600000e-07	-4.295798e-06	-1.273297e-09	-3.054932e+01	-8.222152e+01
7.700000e-07	-4.267770e-06	-1.261893e-09	-3.035001e+01	-8.198259e+01
7.800000e-07	-4.239489e-06	-1.266175e-09	-3.014889e+01	-8.174647e+01
7.900000e-07	-4.210891e-06	-1.261373e-09	-2.994551e+01	-8.151302e+01
8.000000e-07	-4.181911e-06	-1.259366e-09	-2.973943e+01	-8.128202e+01
8.100000e-07	-4.152707e-06	-1.252495e-09	-2.953174e+01	-8.105324e+01
8.200000e-07	-4.123247e-06	-1.256741e-09	-2.932224e+01	-8.082635e+01
8.300000e-07	-4.093461e-06	-1.256038e-09	-2.911042e+01	-8.060103e+01
8.400000e-07	-4.063451e-06	-1.250535e-09	-2.889701e+01	-8.037689e+01
8.500000e-07	-4.033182e-06	-1.238816e-09	-2.868175e+01	-8.015353e+01
8.600000e-07	-4.002572e-06	-1.238545e-09	-2.846407e+01	-7.993052e+01
8.700000e-07	-3.971493e-06	-1.242090e-09	-2.824305e+01	-7.970742e+01
8.800000e-07	-3.940191e-06	-1.238048e-09	-2.802045e+01	-7.948378e+01
8.900000e-07	-3.908832e-06	-1.227215e-09	-2.779744e+01	-7.925914e+01
9.000000e-07	-3.877274e-06	-1.219471e-09	-2.757302e+01	-7.903305e+01
9.100000e-07	-3.845558e-06	-1.219982e-09	-2.734747e+01	-7.880506e+01
9.200000e-07	-3.813695e-06	-1.219831e-09	-2.712088e+01	-7.857476e+01
9.300000e-07	-3.781685e-06	-1.215566e-09	-2.689324e+01	-7.834173e+01
9.400000e-07	-3.749467e-06	-1.213018e-09	-2.666412e+01	-7.810560e+01
9.500000e-07	-3.716837e-06	-1.219142e-09	-2.643208e+01	-7.786601e+01
9.600000e-07	-3.683780e-06	-1.219845e-09	-2.619699e+01	-7.762266e+01
9.700000e-07	-3.650360e-06	-1.210746e-09	-2.595933e+01	-7.737525e+01
9.800000e-07	-3.616371e-06	-1.194994e-09	-2.571762e+01	-7.712355e+01
9.900000e-07	-3.581805e-06	-1.188987e-09	-2.547181e+01	-7.686737e+01
1.000000e-06	-3.546936e-06	-1.182512e-09	-2.522384e+01	-7.660656e+01
1.010000e-06	-3.511891e-06	-1.181332e-09	-2.497462e+01	-7.634101e+01
1.020000e-06	-3.476514e-06	-1.179466e-09	-2.472303e+01	-7.607065e+01
1.030000e-06	-3.440832e-06	-1.186088e-09	-2.446928e+01	-7.579548e+01
1.040000e-06	-3.405078e-06	-1.186369e-09	-2.421502e+01	-7.551552e+01
1.050000e-06	-3.369258e-06	-1.182551e-09	-2.396029e+01	-7.523085e+01
1.060000e-06	-3.333285e-06	-1.168223e-09	-2.370447e+01	-7.494157e+01
1.070000e-06	-3.297132e-06	-1.157758e-09	-2.344737e+01	-7.464783e+01
1.080000e-06	-3.260699e-06	-1.148772e-09	-2.318828e+01	-7.434981e+01
1.090000e-06	-3.223936e-06	-1.147393e-09	-2.292684e+01	-7.404773e+01
1.100000e-06	-3.186955e-06	-1.148566e-09	-2.266385e+01	-7.374183e+01
1.110000e-06	-3.149748e-06	-1.152335e-09	-2.239925e+01	-7.343237e+01
1.120000e-06	-3.112339e-06	-1.150635e-09	-2.213323e+01	-7.311963e+01
1.130000e-06	-3.074778e-06	-1.144815e-09	-2.186611e+01	-7.280389e+01
1.140000e-06	-3.037034e-06	-1.132297e-09	-2.159770e+01	-7.248547e+01
1.150000e-06	-2.999102e-06	-1.122218e-09	-2.132795e+01	-7.216466e+01
1.160000e-06	-2.960994e-06	-1.115807e-09	-2.105694e+01	-7.184177e+01
1.170000e-06	-2.922675e-06	-1.114310e-09	-2.078444e+01	-7.151708e+01
1.180000e-06	-2.884045e-06	-1.112204e-09	-2.050973e+01	-7.119087e+01
1.190000e-06	-2.845200e-06	-1.107580e-09	-2.023348e+01	-7.086342e+01
1.200000e-06	-2.806335e-06	-1.104246e-09	-1.995710e+01	-7.053496e+01
1.210000e-06	-2.767282e-06	-1.103081e-09	-1.967937e+01	-7.020571e+01
1.220000e-06	-2.727952e-06	-1.099069e-09	-1.939968e+01	-6.987586e+01
1.230000e-06	-2.688445e-06	-1.089643e-09	-1.911872e+01	-6.954557e+01
1.240000e-06	-2.648804e-06	-1.082272e-09	-1.883682e+01	-6.921496e+01
1.250000e-06	-2.609075e-06	-1.076346e-09	-1.855429e+01	-6.888411e+01
1.260000e-06	-2.569195e-06	-1.071113e-09	-1.827069e+01	-6.855307e+01
1.270000e-06	-2.529260e-06	-1.061776e-09	-1.798669e+01	-6.822184e+01
1.280000e-06	-2.489274e-06	-1.057174e-09	-1.770233e+01	-6.789040e+01
1.290000e-06	-2.449166e-06	-1.055979e-09	-1.741711e+01	-6.755865e+01
1.300000e-06	-2.408931e-06	-1.054439e-09	-1.713098e+01	-6.722648e+01
1.310000e-06	-2.368439e-06	-1.043982e-09	-1.684302e+01	-6.689373e+01
1.320000e-06	-2.327614e-06	-1.032971e-09	-1.655269e+01	-6.656021e+01
1.330000e-06	-2.286596e-06	-1.024161e-09	-1.626100e+01	-6.622567e+01
1.340000e-06	-2.245426e-06	-1.018647e-09	-1.596822e+01	-6.588984e+01
1.350000e-06	-2.203973e-06	-1.013101e-09	-1.567343e+01	-6.555243e+01
1.360000e-06	-2.162082e-06	-1.009838e-09	-1.537553e+01	-6.521308e+01
1.370000e-06	-2.119871e-06	-1.006376e-09	-1.507534e+01	-6.487145e+01
1.380000e-06	-2.077415e-06	-1.005405e-09	-1.477342e+01	-6.452714e+01
1.390000e-06	-2.034804e-06	-1.001428e-09	-1.447039e+01	-6.417976e+01
1.400000e-06	-1.992066e-06	-9.954902e-10	-1.416647e+01	-6.382888e+01
1.410000e-06	-1.949058e-06	-9.872547e-10	-1.386062e+01	-6.347408e+01
1.420000e-06	-1.905847e-06	-9.805558e-10	-1.355332e+01	-6.311490e+01
1.430000e-06	-1.862523e-06	-9.760596e-10	-1.324523e+01	-6.275091e+01
1.440000e-06	-1.819024e-06	-9.733977e-10	-1.293589e+01	-6.238167e+01
1.450000e-06	-1.775432e-06	-9.692873e-10	-1.262589e+01	-6.200673e+01
1.460000e-06	-1.731774e-06	-9.660015e-10	-1.231541e+01	-6.162566e+01
1.470000e-06	-1.687991e-06	-9.623534e-10	-1.200406e+01	-6.123803e+01
1.480000e-06	-1.644147e-06	-9.556372e-10	-1.169226e+01	-6.084344e+01
1.490000e-06	-1.600205e-06	-9.472455e-10	-1.137977e+01	-6.044148e+01
1.500000e-06	-1.556174e-06	-9.396797e-10	-1.106665e+01	-6.003177e+01
1.510000e-06	-1.512094e-06	-9.347001e-10	-1.075318e+01	-5.961396e+01
1.520000e-06	-1.467972e-06	-9.295011e-10	-1.043940e+01	-5.918771e+01
1.530000e-06	-1.423813e-06	-9.202177e-10	-1.012536e+01	-5.875268e+01
1.540000e-06	-1.379588e-06	-9.095186e-10	-9.810862e+00	-5.830858e+01
1.550000e-06	-1.335313e-06	-9.014536e-10	-9.496002e+00	-5.785514e+01
1.560000e-06	-1.290999e-06	-8.937225e-10	-9.180866e+00	-5.739207e+01
1.570000e-06	-1.246562e-06	-8.872796e-10	-8.864852e+00	-5.691916e+01
1.580000e-06	-1.202013e-06	-8.828504e-10	-8.548047e+00	-5.643615e+01
1.590000e-06	-1.157342e-06	-8.800063e-10	-8.230374e+00	-5.594285e+01
1.600000e-06	-1.112641e-06	-8.741520e-10	-7.912485e+00	-5.543905e+01
1.610000e-06	-1.067855e-06	-8.641377e-10	-7.593992e+00	-5.492455e+01
1.620000e-06	-1.022824e-06	-8.508128e-10	-7.273753e+00	-5.439916e+01
1.630000e-06	-9.777099e-07	-8.397094e-10	-6.952929e+00	-5.386270e+01
1.640000e-06	-9.326217e-07	-8.306809e-10	-6.632287e+00	-5.331498e+01
1.650000e-06	-8.874776e-07	-8.232260e-10	-6.311247e+00	-5.275580e+01
1.660000e-06	-8.421694e-07	-8.128859e-10	-5.989041e+00	-5.218494e+01
1.670000e-06	-7.967889e-07	-8.037378e-10	-5.666319e+00	-5.160220e+01
1.680000e-06	-7.514575e-07	-7.984707e-10	-5.343948e+00	-5.100732e+01
1.690000e-06	-7.060610e-07	-7.914239e-10	-5.021113e+00	-5.040005e+01
1.700000e-06	-6.606393e-07	-7.781327e-10	-4.698099e+00	-4.978009e+01
1.710000e-06	-6.151598e-07	-7.662082e-10	-4.374674e+00	-4.914713e+01
1.720000e-06	-5.695270e-07	-7.574072e-10	-4.050160e+00	-4.850081e+01
1.730000e-06	-5.238983e-07	-7.498125e-10	-3.725674e+00	-4.784074e+01
1.740000e-06	-4.782325e-07	-7.389969e-10	-3.400924e+00	-4.716651e+01
1.750000e-06	-4.324972e-07	-7.269805e-10	-3.075680e+00	-4.647764e+01
1.760000e-06	-3.867858e-07	-7.156003e-10	-2.750606e+00	-4.577362e+01
1.770000e-06	-3.410797e-07	-7.042522e-10	-2.425569e+00	-4.505391e+01
1.780000e-06	-2.953339e-07	-6.936158e-10	-2.100250e+00	-4.431792e+01
1.790000e-06	-2.495712e-07	-6.845396e-10	-1.774812e+00	-4.356501e+01
1.800000e-06	-2.037044e-07	-6.736045e-10	-1.448632e+00	-4.279451e+01
1.810000e-06	-1.577848e-07	-6.600505e-10	-1.122078e+00	-4.200571e+01
1.820000e-06	-1.119672e-07	-6.458497e-10	-7.962488e-01	-4.119786e+01
1.830000e-06	-6.617762e-08	-6.317230e-10	-4.706184e-01	-4.037019e+01
1.840000e-06	-2.042955e-08	-6.181224e-10	-1.452836e-01	-3.952189e+01
1.850000e-06	2.537983e-08	-6.050725e-10	1.804873e-01	-3.865213e+01
1.860000e-06	7.125681e-08	-5.927335e-10	5.067388e-01	-3.776006e+01
1.870000e-06	1.170235e-07	-5.805367e-10	8.322063e-01	-3.684483e+01
1.880000e-06	1.627048e-07	-5.693927e-10	1.157066e+00	-3.590557e+01
1.890000e-06	2.083853e-07	-5.556869e-10	1.481921e+00	-3.494142e+01
1.900000e-06	2.540257e-07	-5.376428e-10	1.806489e+00	-3.395152e+01
1.910000e-06	2.997222e-07	-5.172535e-10	2.131458e+00	-3.293504e+01
1.920000e-06	3.454925e-07	-4.975798e-10	2.456950e+00	-3.189117e+01
1.930000e-06	3.912647e-07	-4.775236e-10	2.782457e+00	-3.081914e+01
1.940000e-06	4.369908e-07	-4.579252e-10	3.107636e+00	-2.971820e+01
1.950000e-06	4.826052e-07	-4.380712e-10	3.432020e+00	-2.858769e+01
1.960000e-06	5.281415e-07	-4.198314e-10	3.755849e+00	-2.742697e+01
1.970000e-06	5.736587e-07	-4.036208e-10	4.079542e+00	-2.623549e+01
1.980000e-06	6.191358e-07	-3.850912e-10	4.402950e+00	-2.501279e+01
1.990000e-06	6.646268e-07	-3.629895e-10	4.726456e+00	-2.375845e+01
2.000000e-06	7.100776e-07	-3.425069e-10	5.049677e+00	-2.247220e+01
2.010000e-06	7.553671e-07	-3.226326e-10	5.371751e+00	-2.115381e+01
2.020000e-06	8.005790e-07	-3.033494e-10	5.693273e+00	-1.980322e+01
2.030000e-06	8.458510e-07	-2.820258e-10	6.015222e+00	-1.842042e+01
2.040000e-06	8.910731e-07	-2.591708e-10	6.336817e+00	-1.700556e+01
2.050000e-06	9.361821e-07	-2.380417e-10	6.657607e+00	-1.555890e+01
2.060000e-06	9.812351e-07	-2.174154e-10	6.977998e+00	-1.408082e+01
2.070000e-06	1.026118e-06	-1.925817e-10	7.297178e+00	-1.257184e+01
2.080000e-06	1.070907e-06	-1.654664e-10	7.615694e+00	-1.103259e+01
2.090000e-06	1.115654e-06	-1.398712e-10	7.933914e+00	-9.463851e+00
2.100000e-06	1.160295e-06	-1.153901e-10	8.251372e+00	-7.866532e+00
2.110000e-06	1.204820e-06	-9.173421e-11	8.568012e+00	-6.241666e+00
2.120000e-06	1.249287e-06	-6.718865e-11	8.884234e+00	-4.590416e+00
2.130000e-06	1.293735e-06	-4.488960e-11	9.200327e+00	-2.914071e+00
2.140000e-06	1.338102e-06	-2.584197e-11	9.515834e+00	-1.214041e+00
2.150000e-06	1.382369e-06	-2.445035e-12	9.830640e+00	5.081501e-01
2.160000e-06	1.426555e-06	2.735680e-11	1.014486e+01	2.250867e+00
2.170000e-06	1.470651e-06	5.872215e-11	1.045845e+01	4.012371e+00
2.180000e-06	1.514647e-06	8.519692e-11	1.077133e+01	5.790830e+00
2.190000e-06	1.558567e-06	1.098191e-10	1.108366e+01	7.584324e+00
2.200000e-06	1.602503e-06	1.381202e-10	1.139611e+01	9.390855e+00
2.210000e-06	1.646364e-06	1.641592e-10	1.170803e+01	1.120836e+01
2.220000e-06	1.690139e-06	1.861833e-10	1.201933e+01	1.303471e+01
2.230000e-06	1.733895e-06	2.096622e-10	1.233050e+01	1.486774e+01
2.240000e-06	1.777635e-06	2.407684e-10	1.264156e+01	1.670524e+01
2.250000e-06	1.821274e-06	2.758766e-10	1.295189e+01	1.854498e+01
2.260000e-06	1.864792e-06	3.083596e-10	1.326137e+01	2.038472e+01
2.270000e-06	1.908193e-06	3.360663e-10	1.357001e+01	2.222221e+01
2.280000e-06	1.951446e-06	3.620161e-10	1.387760e+01	2.405522e+01
2.290000e-06	1.994635e-06	3.889118e-10	1.418474e+01	2.588153e+01
2.300000e-06	2.037533e-06	4.141463e-10	1.448980e+01	2.769896e+01
2.310000e-06	2.080141e-06	4.377082e-10	1.479280e+01	2.950537e+01
2.320000e-06	2.122528e-06	4.643494e-10	1.509424e+01	3.129868e+01
2.330000e-06	2.164585e-06	4.942127e-10	1.539332e+01	3.307687e+01
2.340000e-06	2.206223e-06	5.220133e-10	1.568943e+01	3.483798e+01
2.350000e-06	2.247543e-06	5.463815e-10	1.598327e+01	3.658016e+01
2.360000e-06	2.288617e-06	5.714465e-10	1.627537e+01	3.830161e+01
2.370000e-06	2.329366e-06	5.990864e-10	1.656515e+01	4.000067e+01
2.380000e-06	2.369926e-06	6.293294e-10	1.685359e+01	4.167574e+01
2.390000e-06	2.410336e-06	6.569214e-10	1.714097e+01	4.332535e+01
2.400000e-06	2.450592e-06	6.790532e-10	1.742725e+01	4.494814e+01
2.410000e-06	2.490694e-06	6.996248e-10	1.771243e+01	4.654287e+01
2.420000e-06	2.530706e-06	7.232270e-10	1.799697e+01	4.810840e+01
2.430000e-06	2.570679e-06	7.485544e-10	1.828124e+01	4.964373e+01
2.440000e-06	2.610553e-06	7.749215e-10	1.856480e+01	5.114796e+01
2.450000e-06	2.650273e-06	8.008058e-10	1.884726e+01	5.262033e+01
2.460000e-06	2.689856e-06	8.268317e-10	1.912876e+01	5.406018e+01
2.470000e-06	2.729382e-06	8.508308e-10	1.940984e+01	5.546698e+01
2.480000e-06	2.768741e-06	8.681415e-10	1.968975e+01	5.684030e+01
2.490000e-06	2.807839e-06	8.820779e-10	1.996779e+01	5.817982e+01
2.500000e-06	2.846677e-06	8.981124e-10	2.024399e+01	5.948534e+01
2.510000e-06	2.885309e-06	9.195882e-10	2.051871e+01	6.075675e+01
2.520000e-06	2.923773e-06	9.451883e-10	2.079225e+01	6.199404e+01
2.530000e-06	2.961943e-06	9.704107e-10	2.106369e+01	6.319727e+01
2.540000e-06	2.999869e-06	9.946560e-10	2.133340e+01	6.436661e+01
2.550000e-06	3.037679e-06	1.017481e-09	2.160229e+01	6.550228e+01
2.560000e-06	3.075319e-06	1.034691e-09	2.186996e+01	6.660458e+01
2.570000e-06	3.112763e-06	1.045771e-09	2.213624e+01	6.767387e+01
2.580000e-06	3.150038e-06	1.054495e-09	2.240132e+01	6.871056e+01
2.590000e-06	3.187097e-06	1.066583e-09	2.266486e+01	6.971512e+01
2.600000e-06	3.223841e-06	1.084904e-09	2.292617e+01	7.068803e+01
2.610000e-06	3.260353e-06	1.106959e-09	2.318582e+01	7.162984e+01
2.620000e-06	3.296680e-06	1.127593e-09	2.344416e+01	7.254108e+01
2.630000e-06	3.332821e-06	1.144990e-09	2.370117e+01	7.342234e+01
2.640000e-06	3.368830e-06	1.157932e-09	2.395725e+01	7.427421e+01
2.650000e-06	3.404689e-06	1.168884e-09	2.421226e+01	7.509727e+01
2.660000e-06	3.440360e-06	1.177292e-09	2.446593e+01	7.589213e+01
2.670000e-06	3.475874e-06	1.183303e-09	2.471849e+01	7.665937e+01
2.680000e-06	3.511239e-06	1.190698e-09	2.496998e+01	7.739959e+01
2.690000e-06	3.546339e-06	1.202744e-09	2.521959e+01	7.811336e+01
2.700000e-06	3.581138e-06	1.218197e-09	2.546706e+01	7.880124e+01
2.710000e-06	3.615521e-06	1.234321e-09	2.571157e+01	7.946379e+01
2.720000e-06	3.649385e-06	1.246907e-09	2.595240e+01	8.010154e+01
2.730000e-06	3.682801e-06	1.256656e-09	2.619003e+01	8.071500e+01
2.740000e-06	3.715850e-06	1.264636e-09	2.642506e+01	8.130467e+01
2.750000e-06	3.748529e-06	1.268920e-09	2.665746e+01	8.187104e+01
2.760000e-06	3.780866e-06	1.272261e-09	2.688741e+01	8.241456e+01
2.770000e-06	3.813011e-06	1.276947e-09	2.711602e+01	8.293568e+01
2.780000e-06	3.844996e-06	1.285918e-09	2.734347e+01	8.343484e+01
2.790000e-06	3.876798e-06	1.297347e-09	2.756963e+01	8.391245e+01
2.800000e-06	3.908399e-06	1.304460e-09	2.779436e+01	8.436894e+01
2.810000e-06	3.939823e-06	1.307271e-09	2.801783e+01	8.480470e+01
2.820000e-06	3.970969e-06	1.311925e-09	2.823932e+01	8.522014e+01
2.830000e-06	4.001809e-06	1.317463e-09	2.845864e+01	8.561565e+01
2.840000e-06	4.032403e-06	1.319301e-09	2.867621e+01	8.599164e+01
2.850000e-06	4.062635e-06	1.320173e-09	2.889120e+01	8.634853e+01
2.860000e-06	4.092595e-06	1.325243e-09	2.910426e+01	8.668671e+01
2.870000e-06	4.122345e-06	1.332998e-09	2.931582e+01	8.700663e+01
2.880000e-06	4.151886e-06	1.339835e-09	2.952591e+01	8.730873e+01
2.890000e-06	4.181111e-06	1.341132e-09	2.973374e+01	8.759346e+01
2.900000e-06	4.209945e-06	1.340826e-09	2.993879e+01	8.786131e+01
