# Temperatura_=_-2.4
# Concentracion g/m^3_=_4090.0
# C_Vs_to_Am_M_A/Vsm_=_65563218390.804596
# pendiente_HvsI_1/m_=_3716.3
# ordenada_HvsI_A/m_=_1297.0
# frecuencia_Hz_=_135067.39327030056

Tiempo_(s)	Campo_(V.s)	Magnetizacion_(V.s)	Campo_(kA/m)	Magnetizacion_(A/m)
0.000000e+00	-5.412403e-06	-1.887117e-09	-3.839157e+01	-1.249276e+02
1.000000e-08	-5.412459e-06	-1.884957e-09	-3.839197e+01	-1.248442e+02
2.000000e-08	-5.412322e-06	-1.880105e-09	-3.839100e+01	-1.247627e+02
3.000000e-08	-5.411964e-06	-1.874324e-09	-3.838845e+01	-1.246837e+02
4.000000e-08	-5.411206e-06	-1.871451e-09	-3.838308e+01	-1.246074e+02
5.000000e-08	-5.409957e-06	-1.873194e-09	-3.837422e+01	-1.245342e+02
6.000000e-08	-5.408205e-06	-1.881825e-09	-3.836179e+01	-1.244645e+02
7.000000e-08	-5.405870e-06	-1.887820e-09	-3.834523e+01	-1.243985e+02
8.000000e-08	-5.402878e-06	-1.845398e-09	-3.832401e+01	-1.243365e+02
9.000000e-08	-5.399302e-06	-1.821797e-09	-3.829864e+01	-1.242787e+02
1.000000e-07	-5.395333e-06	-1.922433e-09	-3.827049e+01	-1.242251e+02
1.100000e-07	-5.391051e-06	-1.956558e-09	-3.824011e+01	-1.241758e+02
1.200000e-07	-5.386561e-06	-1.828089e-09	-3.820826e+01	-1.241309e+02
1.300000e-07	-5.381912e-06	-1.770176e-09	-3.817529e+01	-1.240902e+02
1.400000e-07	-5.376894e-06	-1.899879e-09	-3.813969e+01	-1.240538e+02
1.500000e-07	-5.371303e-06	-1.999925e-09	-3.810003e+01	-1.240213e+02
1.600000e-07	-5.365249e-06	-1.803031e-09	-3.805710e+01	-1.239927e+02
1.700000e-07	-5.359002e-06	-1.730245e-09	-3.801278e+01	-1.239677e+02
1.800000e-07	-5.352491e-06	-1.887456e-09	-3.796660e+01	-1.239458e+02
1.900000e-07	-5.345478e-06	-1.985041e-09	-3.791685e+01	-1.239268e+02
2.000000e-07	-5.338052e-06	-1.833235e-09	-3.786417e+01	-1.239101e+02
2.100000e-07	-5.330516e-06	-1.802782e-09	-3.781072e+01	-1.238955e+02
2.200000e-07	-5.322780e-06	-1.931733e-09	-3.775585e+01	-1.238822e+02
2.300000e-07	-5.314672e-06	-1.931815e-09	-3.769834e+01	-1.238699e+02
2.400000e-07	-5.306243e-06	-1.832774e-09	-3.763855e+01	-1.238579e+02
2.500000e-07	-5.297457e-06	-1.893706e-09	-3.757622e+01	-1.238455e+02
2.600000e-07	-5.287899e-06	-1.998524e-09	-3.750843e+01	-1.238323e+02
2.700000e-07	-5.277510e-06	-1.909821e-09	-3.743473e+01	-1.238175e+02
2.800000e-07	-5.266617e-06	-1.860339e-09	-3.735747e+01	-1.238004e+02
2.900000e-07	-5.255284e-06	-1.959144e-09	-3.727708e+01	-1.237805e+02
3.000000e-07	-5.243547e-06	-1.959268e-09	-3.719383e+01	-1.237571e+02
3.100000e-07	-5.231411e-06	-1.815668e-09	-3.710775e+01	-1.237295e+02
3.200000e-07	-5.218963e-06	-1.874046e-09	-3.701945e+01	-1.236970e+02
3.300000e-07	-5.206155e-06	-1.983501e-09	-3.692860e+01	-1.236591e+02
3.400000e-07	-5.193009e-06	-1.926044e-09	-3.683535e+01	-1.236151e+02
3.500000e-07	-5.179524e-06	-1.852742e-09	-3.673970e+01	-1.235645e+02
3.600000e-07	-5.165551e-06	-1.939120e-09	-3.664058e+01	-1.235067e+02
3.700000e-07	-5.151045e-06	-1.924628e-09	-3.653769e+01	-1.234413e+02
3.800000e-07	-5.136112e-06	-1.852381e-09	-3.643176e+01	-1.233677e+02
3.900000e-07	-5.120699e-06	-1.871594e-09	-3.632244e+01	-1.232856e+02
4.000000e-07	-5.104611e-06	-1.909324e-09	-3.620832e+01	-1.231945e+02
4.100000e-07	-5.088044e-06	-1.859232e-09	-3.609080e+01	-1.230942e+02
4.200000e-07	-5.071141e-06	-1.898138e-09	-3.597091e+01	-1.229844e+02
4.300000e-07	-5.053821e-06	-1.946582e-09	-3.584805e+01	-1.228648e+02
4.400000e-07	-5.036236e-06	-1.893138e-09	-3.572332e+01	-1.227355e+02
4.500000e-07	-5.018485e-06	-1.848825e-09	-3.559740e+01	-1.225961e+02
4.600000e-07	-5.000475e-06	-1.893639e-09	-3.546965e+01	-1.224468e+02
4.700000e-07	-4.982088e-06	-1.884542e-09	-3.533923e+01	-1.222875e+02
4.800000e-07	-4.963295e-06	-1.844281e-09	-3.520593e+01	-1.221183e+02
4.900000e-07	-4.944120e-06	-1.857941e-09	-3.506992e+01	-1.219393e+02
5.000000e-07	-4.924640e-06	-1.877297e-09	-3.493174e+01	-1.217508e+02
5.100000e-07	-4.904913e-06	-1.873346e-09	-3.479181e+01	-1.215529e+02
5.200000e-07	-4.884973e-06	-1.873385e-09	-3.465037e+01	-1.213459e+02
5.300000e-07	-4.864762e-06	-1.856530e-09	-3.450701e+01	-1.211303e+02
5.400000e-07	-4.844184e-06	-1.834637e-09	-3.436104e+01	-1.209062e+02
5.500000e-07	-4.823197e-06	-1.854407e-09	-3.421218e+01	-1.206742e+02
5.600000e-07	-4.801828e-06	-1.853006e-09	-3.406060e+01	-1.204347e+02
5.700000e-07	-4.780186e-06	-1.826408e-09	-3.390709e+01	-1.201880e+02
5.800000e-07	-4.758278e-06	-1.822998e-09	-3.375169e+01	-1.199348e+02
5.900000e-07	-4.736101e-06	-1.838818e-09	-3.359438e+01	-1.196755e+02
6.000000e-07	-4.713589e-06	-1.827370e-09	-3.343470e+01	-1.194106e+02
6.100000e-07	-4.690734e-06	-1.820336e-09	-3.327259e+01	-1.191405e+02
6.200000e-07	-4.667531e-06	-1.808370e-09	-3.310800e+01	-1.188659e+02
6.300000e-07	-4.644046e-06	-1.808533e-09	-3.294141e+01	-1.185873e+02
6.400000e-07	-4.620351e-06	-1.819260e-09	-3.277334e+01	-1.183050e+02
6.500000e-07	-4.596387e-06	-1.823044e-09	-3.260335e+01	-1.180197e+02
6.600000e-07	-4.572245e-06	-1.796782e-09	-3.243211e+01	-1.177318e+02
6.700000e-07	-4.547905e-06	-1.794627e-09	-3.225946e+01	-1.174416e+02
6.800000e-07	-4.523141e-06	-1.800280e-09	-3.208381e+01	-1.171497e+02
6.900000e-07	-4.497817e-06	-1.791600e-09	-3.190417e+01	-1.168564e+02
7.000000e-07	-4.471983e-06	-1.770652e-09	-3.172093e+01	-1.165620e+02
7.100000e-07	-4.445668e-06	-1.769828e-09	-3.153427e+01	-1.162668e+02
7.200000e-07	-4.418845e-06	-1.774853e-09	-3.134400e+01	-1.159712e+02
7.300000e-07	-4.391578e-06	-1.781530e-09	-3.115059e+01	-1.156753e+02
7.400000e-07	-4.364029e-06	-1.771076e-09	-3.095518e+01	-1.153794e+02
7.500000e-07	-4.336252e-06	-1.759215e-09	-3.075815e+01	-1.150835e+02
7.600000e-07	-4.308296e-06	-1.757037e-09	-3.055985e+01	-1.147877e+02
7.700000e-07	-4.280188e-06	-1.759847e-09	-3.036047e+01	-1.144921e+02
7.800000e-07	-4.251831e-06	-1.750215e-09	-3.015933e+01	-1.141968e+02
7.900000e-07	-4.223145e-06	-1.739084e-09	-2.995585e+01	-1.139015e+02
8.000000e-07	-4.194083e-06	-1.736854e-09	-2.974971e+01	-1.136064e+02
8.100000e-07	-4.164680e-06	-1.737730e-09	-2.954114e+01	-1.133112e+02
8.200000e-07	-4.135039e-06	-1.733651e-09	-2.933090e+01	-1.130159e+02
8.300000e-07	-4.105207e-06	-1.722162e-09	-2.911929e+01	-1.127201e+02
8.400000e-07	-4.075116e-06	-1.714667e-09	-2.890584e+01	-1.124237e+02
8.500000e-07	-4.044787e-06	-1.714343e-09	-2.869072e+01	-1.121265e+02
8.600000e-07	-4.014164e-06	-1.715488e-09	-2.847350e+01	-1.118281e+02
8.700000e-07	-3.983183e-06	-1.705645e-09	-2.825374e+01	-1.115283e+02
8.800000e-07	-3.952000e-06	-1.698845e-09	-2.803255e+01	-1.112267e+02
8.900000e-07	-3.920603e-06	-1.697386e-09	-2.780984e+01	-1.109231e+02
9.000000e-07	-3.888960e-06	-1.696572e-09	-2.758540e+01	-1.106171e+02
9.100000e-07	-3.857119e-06	-1.683820e-09	-2.735954e+01	-1.103084e+02
9.200000e-07	-3.825084e-06	-1.674428e-09	-2.713231e+01	-1.099966e+02
9.300000e-07	-3.792880e-06	-1.674303e-09	-2.690387e+01	-1.096815e+02
9.400000e-07	-3.760357e-06	-1.682977e-09	-2.667318e+01	-1.093627e+02
9.500000e-07	-3.727436e-06	-1.680324e-09	-2.643966e+01	-1.090398e+02
9.600000e-07	-3.694252e-06	-1.671765e-09	-2.620428e+01	-1.087127e+02
9.700000e-07	-3.660773e-06	-1.663618e-09	-2.596680e+01	-1.083810e+02
9.800000e-07	-3.626841e-06	-1.661583e-09	-2.572612e+01	-1.080445e+02
9.900000e-07	-3.592462e-06	-1.650824e-09	-2.548226e+01	-1.077030e+02
1.000000e-06	-3.557630e-06	-1.635983e-09	-2.523519e+01	-1.073563e+02
1.010000e-06	-3.522428e-06	-1.626358e-09	-2.498549e+01	-1.070042e+02
1.020000e-06	-3.486963e-06	-1.629895e-09	-2.473393e+01	-1.066466e+02
1.030000e-06	-3.451335e-06	-1.632495e-09	-2.448121e+01	-1.062834e+02
1.040000e-06	-3.415562e-06	-1.627953e-09	-2.422746e+01	-1.059144e+02
1.050000e-06	-3.379583e-06	-1.614911e-09	-2.397225e+01	-1.055398e+02
1.060000e-06	-3.343462e-06	-1.604426e-09	-2.371604e+01	-1.051594e+02
1.070000e-06	-3.307211e-06	-1.596396e-09	-2.345890e+01	-1.047733e+02
1.080000e-06	-3.270806e-06	-1.585303e-09	-2.320067e+01	-1.043815e+02
1.090000e-06	-3.234188e-06	-1.574033e-09	-2.294093e+01	-1.039841e+02
1.100000e-06	-3.197306e-06	-1.570235e-09	-2.267932e+01	-1.035813e+02
1.110000e-06	-3.160092e-06	-1.573360e-09	-2.241534e+01	-1.031731e+02
1.120000e-06	-3.122607e-06	-1.572663e-09	-2.214945e+01	-1.027597e+02
1.130000e-06	-3.084928e-06	-1.564460e-09	-2.188219e+01	-1.023413e+02
1.140000e-06	-3.047016e-06	-1.552231e-09	-2.161327e+01	-1.019181e+02
1.150000e-06	-3.008931e-06	-1.545443e-09	-2.134312e+01	-1.014903e+02
1.160000e-06	-2.970679e-06	-1.539963e-09	-2.107179e+01	-1.010580e+02
1.170000e-06	-2.932245e-06	-1.531011e-09	-2.079917e+01	-1.006215e+02
1.180000e-06	-2.893573e-06	-1.519074e-09	-2.052486e+01	-1.001809e+02
1.190000e-06	-2.854663e-06	-1.512106e-09	-2.024886e+01	-9.973663e+01
1.200000e-06	-2.815570e-06	-1.509435e-09	-1.997156e+01	-9.928874e+01
1.210000e-06	-2.776253e-06	-1.507934e-09	-1.969268e+01	-9.883745e+01
1.220000e-06	-2.736792e-06	-1.502526e-09	-1.941277e+01	-9.838295e+01
1.230000e-06	-2.697179e-06	-1.497927e-09	-1.913178e+01	-9.792540e+01
1.240000e-06	-2.657417e-06	-1.493267e-09	-1.884975e+01	-9.746494e+01
1.250000e-06	-2.617583e-06	-1.487807e-09	-1.856719e+01	-9.700171e+01
1.260000e-06	-2.577649e-06	-1.475424e-09	-1.828392e+01	-9.653580e+01
1.270000e-06	-2.537592e-06	-1.461331e-09	-1.799979e+01	-9.606727e+01
1.280000e-06	-2.497344e-06	-1.451418e-09	-1.771431e+01	-9.559617e+01
1.290000e-06	-2.456915e-06	-1.445363e-09	-1.742753e+01	-9.512251e+01
1.300000e-06	-2.416362e-06	-1.437565e-09	-1.713987e+01	-9.464626e+01
1.310000e-06	-2.375701e-06	-1.429549e-09	-1.685146e+01	-9.416737e+01
1.320000e-06	-2.334804e-06	-1.424787e-09	-1.656137e+01	-9.368574e+01
1.330000e-06	-2.293694e-06	-1.423485e-09	-1.626976e+01	-9.320126e+01
1.340000e-06	-2.252389e-06	-1.418773e-09	-1.597677e+01	-9.271376e+01
1.350000e-06	-2.210722e-06	-1.410927e-09	-1.568122e+01	-9.222305e+01
1.360000e-06	-2.168787e-06	-1.403331e-09	-1.538376e+01	-9.172890e+01
1.370000e-06	-2.126604e-06	-1.394081e-09	-1.508455e+01	-9.123107e+01
1.380000e-06	-2.084072e-06	-1.380748e-09	-1.478286e+01	-9.072926e+01
1.390000e-06	-2.041262e-06	-1.367192e-09	-1.447920e+01	-9.022316e+01
1.400000e-06	-1.998226e-06	-1.359206e-09	-1.417393e+01	-8.971244e+01
1.410000e-06	-1.955008e-06	-1.358355e-09	-1.386738e+01	-8.919673e+01
1.420000e-06	-1.911638e-06	-1.356902e-09	-1.355974e+01	-8.867566e+01
1.430000e-06	-1.868059e-06	-1.349224e-09	-1.325063e+01	-8.814882e+01
1.440000e-06	-1.824313e-06	-1.340599e-09	-1.294032e+01	-8.761580e+01
1.450000e-06	-1.780553e-06	-1.333645e-09	-1.262992e+01	-8.707618e+01
1.460000e-06	-1.736767e-06	-1.324729e-09	-1.231934e+01	-8.652952e+01
1.470000e-06	-1.692859e-06	-1.309756e-09	-1.200789e+01	-8.597540e+01
1.480000e-06	-1.648867e-06	-1.294368e-09	-1.169584e+01	-8.541336e+01
1.490000e-06	-1.604845e-06	-1.284605e-09	-1.138358e+01	-8.484298e+01
1.500000e-06	-1.560763e-06	-1.279322e-09	-1.107089e+01	-8.426380e+01
1.510000e-06	-1.516584e-06	-1.273946e-09	-1.075752e+01	-8.367541e+01
1.520000e-06	-1.472352e-06	-1.266809e-09	-1.044377e+01	-8.307739e+01
1.530000e-06	-1.428084e-06	-1.258175e-09	-1.012976e+01	-8.246932e+01
1.540000e-06	-1.383764e-06	-1.248530e-09	-9.815397e+00	-8.185080e+01
1.550000e-06	-1.339419e-06	-1.234523e-09	-9.500845e+00	-8.122146e+01
1.560000e-06	-1.295021e-06	-1.218502e-09	-9.185919e+00	-8.058092e+01
1.570000e-06	-1.250516e-06	-1.206420e-09	-8.870231e+00	-7.992884e+01
1.580000e-06	-1.205935e-06	-1.200248e-09	-8.554005e+00	-7.926487e+01
1.590000e-06	-1.161294e-06	-1.192364e-09	-8.237358e+00	-7.858871e+01
1.600000e-06	-1.116484e-06	-1.181532e-09	-7.919508e+00	-7.790006e+01
1.610000e-06	-1.071510e-06	-1.171495e-09	-7.600498e+00	-7.719862e+01
1.620000e-06	-1.026458e-06	-1.163451e-09	-7.280928e+00	-7.648415e+01
1.630000e-06	-9.813108e-07	-1.151670e-09	-6.960690e+00	-7.575638e+01
1.640000e-06	-9.361266e-07	-1.133518e-09	-6.640187e+00	-7.501507e+01
1.650000e-06	-8.908978e-07	-1.116153e-09	-6.319367e+00	-7.426001e+01
1.660000e-06	-8.456019e-07	-1.105406e-09	-5.998072e+00	-7.349097e+01
1.670000e-06	-8.002308e-07	-1.096666e-09	-5.676243e+00	-7.270775e+01
1.680000e-06	-7.547776e-07	-1.085491e-09	-5.353832e+00	-7.191014e+01
1.690000e-06	-7.093259e-07	-1.072539e-09	-5.031432e+00	-7.109794e+01
1.700000e-06	-6.638586e-07	-1.059658e-09	-4.708920e+00	-7.027095e+01
1.710000e-06	-6.182978e-07	-1.046026e-09	-4.385746e+00	-6.942895e+01
1.720000e-06	-5.727151e-07	-1.031148e-09	-4.062416e+00	-6.857174e+01
1.730000e-06	-5.271277e-07	-1.018053e-09	-3.739053e+00	-6.769909e+01
1.740000e-06	-4.814423e-07	-1.007892e-09	-3.414994e+00	-6.681077e+01
1.750000e-06	-4.356463e-07	-9.977594e-10	-3.090151e+00	-6.590652e+01
1.760000e-06	-3.897776e-07	-9.832938e-10	-2.764793e+00	-6.498608e+01
1.770000e-06	-3.439275e-07	-9.648609e-10	-2.439566e+00	-6.404916e+01
1.780000e-06	-2.980261e-07	-9.464490e-10	-2.113976e+00	-6.309544e+01
1.790000e-06	-2.520481e-07	-9.305277e-10	-1.787842e+00	-6.212458e+01
1.800000e-06	-2.060903e-07	-9.152809e-10	-1.461851e+00	-6.113623e+01
1.810000e-06	-1.602088e-07	-9.009687e-10	-1.136402e+00	-6.012999e+01
1.820000e-06	-1.144020e-07	-8.883587e-10	-8.114825e-01	-5.910545e+01
1.830000e-06	-6.860050e-08	-8.768523e-10	-4.866010e-01	-5.806215e+01
1.840000e-06	-2.276514e-08	-8.613105e-10	-1.614790e-01	-5.699962e+01
1.850000e-06	2.306559e-08	-8.405507e-10	1.636102e-01	-5.591736e+01
1.860000e-06	6.885588e-08	-8.190065e-10	4.884125e-01	-5.481482e+01
1.870000e-06	1.147318e-07	-8.015162e-10	8.138223e-01	-5.369146e+01
1.880000e-06	1.606942e-07	-7.862264e-10	1.139845e+00	-5.254669e+01
1.890000e-06	2.065772e-07	-7.686850e-10	1.465306e+00	-5.137991e+01
1.900000e-06	2.524037e-07	-7.492246e-10	1.790364e+00	-5.019050e+01
1.910000e-06	2.982609e-07	-7.312049e-10	2.115641e+00	-4.897782e+01
1.920000e-06	3.441411e-07	-7.130763e-10	2.441081e+00	-4.774122e+01
1.930000e-06	3.900649e-07	-6.910401e-10	2.766831e+00	-4.648006e+01
1.940000e-06	4.359840e-07	-6.666175e-10	3.092547e+00	-4.519368e+01
1.950000e-06	4.818323e-07	-6.437417e-10	3.417761e+00	-4.388142e+01
1.960000e-06	5.275839e-07	-6.233585e-10	3.742288e+00	-4.254265e+01
1.970000e-06	5.732269e-07	-6.020502e-10	4.066046e+00	-4.117675e+01
1.980000e-06	6.187672e-07	-5.771464e-10	4.389075e+00	-3.978309e+01
1.990000e-06	6.642678e-07	-5.538361e-10	4.711822e+00	-3.836112e+01
2.000000e-06	7.098032e-07	-5.354436e-10	5.034817e+00	-3.691028e+01
2.010000e-06	7.552788e-07	-5.159524e-10	5.357387e+00	-3.543008e+01
2.020000e-06	8.006380e-07	-4.920592e-10	5.679132e+00	-3.392005e+01
2.030000e-06	8.459589e-07	-4.649751e-10	6.000604e+00	-3.237979e+01
2.040000e-06	8.912278e-07	-4.375773e-10	6.321708e+00	-3.080896e+01
2.050000e-06	9.363987e-07	-4.104547e-10	6.642117e+00	-2.920728e+01
2.060000e-06	9.815340e-07	-3.831272e-10	6.962273e+00	-2.757454e+01
2.070000e-06	1.026608e-06	-3.575469e-10	7.281992e+00	-2.591061e+01
2.080000e-06	1.071544e-06	-3.348198e-10	7.600740e+00	-2.421545e+01
2.090000e-06	1.116380e-06	-3.127753e-10	7.918771e+00	-2.248910e+01
2.100000e-06	1.161120e-06	-2.877327e-10	8.236121e+00	-2.073169e+01
2.110000e-06	1.205768e-06	-2.586305e-10	8.552822e+00	-1.894344e+01
2.120000e-06	1.250256e-06	-2.278722e-10	8.868391e+00	-1.712469e+01
2.130000e-06	1.294620e-06	-1.986673e-10	9.183074e+00	-1.527586e+01
2.140000e-06	1.338983e-06	-1.719208e-10	9.497748e+00	-1.339749e+01
2.150000e-06	1.383302e-06	-1.455785e-10	9.812119e+00	-1.149021e+01
2.160000e-06	1.427592e-06	-1.192137e-10	1.012627e+01	-9.554762e+00
2.170000e-06	1.471836e-06	-9.258698e-11	1.044011e+01	-7.592004e+00
2.180000e-06	1.515994e-06	-6.622448e-11	1.075334e+01	-5.602890e+00
2.190000e-06	1.560080e-06	-3.800771e-11	1.106605e+01	-3.588479e+00
2.200000e-06	1.604091e-06	-6.694710e-12	1.137823e+01	-1.549936e+00
2.210000e-06	1.648087e-06	2.493174e-11	1.169031e+01	5.114788e-01
2.220000e-06	1.692057e-06	5.696097e-11	1.200219e+01	2.594405e+00
2.230000e-06	1.735966e-06	9.087617e-11	1.231365e+01	4.697391e+00
2.240000e-06	1.779830e-06	1.255308e-10	1.262479e+01	6.818900e+00
2.250000e-06	1.823597e-06	1.596420e-10	1.293525e+01	8.957308e+00
2.260000e-06	1.867197e-06	1.922732e-10	1.324451e+01	1.111092e+01
2.270000e-06	1.910664e-06	2.231232e-10	1.355283e+01	1.327797e+01
2.280000e-06	1.954033e-06	2.527889e-10	1.386046e+01	1.545662e+01
2.290000e-06	1.997309e-06	2.831302e-10	1.416743e+01	1.764499e+01
2.300000e-06	2.040392e-06	3.146800e-10	1.447303e+01	1.984114e+01
2.310000e-06	2.083126e-06	3.454858e-10	1.477615e+01	2.204310e+01
2.320000e-06	2.125533e-06	3.784049e-10	1.507695e+01	2.424885e+01
2.330000e-06	2.167679e-06	4.155382e-10	1.537591e+01	2.645637e+01
2.340000e-06	2.209650e-06	4.527809e-10	1.567361e+01	2.866362e+01
2.350000e-06	2.251348e-06	4.862111e-10	1.596939e+01	3.086852e+01
2.360000e-06	2.292610e-06	5.157233e-10	1.626207e+01	3.306903e+01
2.370000e-06	2.333583e-06	5.449114e-10	1.655270e+01	3.526312e+01
2.380000e-06	2.374353e-06	5.766522e-10	1.684190e+01	3.744874e+01
2.390000e-06	2.414840e-06	6.101063e-10	1.712908e+01	3.962391e+01
2.400000e-06	2.455099e-06	6.429450e-10	1.741465e+01	4.178665e+01
2.410000e-06	2.495228e-06	6.751936e-10	1.769929e+01	4.393506e+01
2.420000e-06	2.535284e-06	7.100359e-10	1.798342e+01	4.606724e+01
2.430000e-06	2.575266e-06	7.480648e-10	1.826702e+01	4.818139e+01
2.440000e-06	2.615204e-06	7.838853e-10	1.855032e+01	5.027575e+01
2.450000e-06	2.655049e-06	8.134427e-10	1.883294e+01	5.234862e+01
2.460000e-06	2.694738e-06	8.404482e-10	1.911447e+01	5.439840e+01
2.470000e-06	2.734341e-06	8.689003e-10	1.939539e+01	5.642354e+01
2.480000e-06	2.773752e-06	8.978759e-10	1.967493e+01	5.842260e+01
2.490000e-06	2.812908e-06	9.248437e-10	1.995268e+01	6.039420e+01
2.500000e-06	2.851871e-06	9.538790e-10	2.022905e+01	6.233705e+01
2.510000e-06	2.890628e-06	9.876829e-10	2.050397e+01	6.424998e+01
2.520000e-06	2.929190e-06	1.022942e-09	2.077750e+01	6.613188e+01
2.530000e-06	2.967571e-06	1.055357e-09	2.104975e+01	6.798176e+01
2.540000e-06	3.005744e-06	1.083277e-09	2.132052e+01	6.979870e+01
2.550000e-06	3.043701e-06	1.109026e-09	2.158976e+01	7.158189e+01
2.560000e-06	3.081465e-06	1.133093e-09	2.185762e+01	7.333063e+01
2.570000e-06	3.119101e-06	1.155724e-09	2.212459e+01	7.504427e+01
2.580000e-06	3.156542e-06	1.177892e-09	2.239017e+01	7.672231e+01
2.590000e-06	3.193693e-06	1.202613e-09	2.265369e+01	7.836428e+01
2.600000e-06	3.230540e-06	1.232239e-09	2.291505e+01	7.996985e+01
2.610000e-06	3.267158e-06	1.262350e-09	2.317479e+01	8.153874e+01
2.620000e-06	3.303561e-06	1.288398e-09	2.343301e+01	8.307078e+01
2.630000e-06	3.339710e-06	1.310695e-09	2.368942e+01	8.456585e+01
2.640000e-06	3.375743e-06	1.330460e-09	2.394502e+01	8.602394e+01
2.650000e-06	3.411701e-06	1.347394e-09	2.420007e+01	8.744507e+01
2.660000e-06	3.447538e-06	1.362052e-09	2.445427e+01	8.882937e+01
2.670000e-06	3.483210e-06	1.377605e-09	2.470730e+01	9.017700e+01
2.680000e-06	3.518723e-06	1.396629e-09	2.495921e+01	9.148821e+01
2.690000e-06	3.554044e-06	1.418749e-09	2.520975e+01	9.276327e+01
2.700000e-06	3.588993e-06	1.441505e-09	2.545765e+01	9.400254e+01
2.710000e-06	3.623463e-06	1.463399e-09	2.570215e+01	9.520639e+01
2.720000e-06	3.657497e-06	1.483925e-09	2.594357e+01	9.637527e+01
2.730000e-06	3.691059e-06	1.501382e-09	2.618163e+01	9.750963e+01
2.740000e-06	3.724145e-06	1.513659e-09	2.641632e+01	9.860999e+01
2.750000e-06	3.756878e-06	1.523159e-09	2.664850e+01	9.967687e+01
2.760000e-06	3.789314e-06	1.534492e-09	2.687858e+01	1.007108e+02
2.770000e-06	3.821506e-06	1.549694e-09	2.710693e+01	1.017125e+02
2.780000e-06	3.853513e-06	1.567436e-09	2.733396e+01	1.026824e+02
2.790000e-06	3.885358e-06	1.585629e-09	2.755984e+01	1.036213e+02
2.800000e-06	3.917069e-06	1.602470e-09	2.778478e+01	1.045297e+02
2.810000e-06	3.948617e-06	1.616637e-09	2.800856e+01	1.054083e+02
2.820000e-06	3.979895e-06	1.626976e-09	2.823042e+01	1.062577e+02
2.830000e-06	4.010893e-06	1.635403e-09	2.845030e+01	1.070787e+02
2.840000e-06	4.041569e-06	1.644905e-09	2.866789e+01	1.078720e+02
2.850000e-06	4.071859e-06	1.655437e-09	2.888274e+01	1.086381e+02
2.860000e-06	4.101822e-06	1.667149e-09	2.909528e+01	1.093778e+02
2.870000e-06	4.131539e-06	1.678566e-09	2.930607e+01	1.100918e+02
2.880000e-06	4.161054e-06	1.689121e-09	2.951543e+01	1.107807e+02
2.890000e-06	4.190289e-06	1.698465e-09	2.972280e+01	1.114453e+02
2.900000e-06	4.219234e-06	1.706333e-09	2.992811e+01	1.120863e+02
