# Temperatura_=_-1.2
# Concentracion g/m^3_=_4090.0
# C_Vs_to_Am_M_A/Vsm_=_65563218390.804596
# pendiente_HvsI_1/m_=_3716.3
# ordenada_HvsI_A/m_=_1297.0
# frecuencia_Hz_=_135075.36519430904

Tiempo_(s)	Campo_(V.s)	Magnetizacion_(V.s)	Campo_(kA/m)	Magnetizacion_(A/m)
0.000000e+00	-5.410690e-06	-2.098239e-09	-3.839074e+01	-1.411397e+02
1.000000e-08	-5.410867e-06	-2.088948e-09	-3.839199e+01	-1.410281e+02
2.000000e-08	-5.410782e-06	-2.082597e-09	-3.839139e+01	-1.409234e+02
3.000000e-08	-5.410529e-06	-2.078200e-09	-3.838960e+01	-1.408262e+02
4.000000e-08	-5.409978e-06	-2.075173e-09	-3.838569e+01	-1.407372e+02
5.000000e-08	-5.408981e-06	-2.076134e-09	-3.837862e+01	-1.406570e+02
6.000000e-08	-5.407419e-06	-2.081210e-09	-3.836754e+01	-1.405863e+02
7.000000e-08	-5.405327e-06	-2.090817e-09	-3.835269e+01	-1.405254e+02
8.000000e-08	-5.402604e-06	-2.109091e-09	-3.833337e+01	-1.404748e+02
9.000000e-08	-5.399188e-06	-2.102336e-09	-3.830913e+01	-1.404347e+02
1.000000e-07	-5.395319e-06	-2.036658e-09	-3.828168e+01	-1.404055e+02
1.100000e-07	-5.391169e-06	-2.036430e-09	-3.825223e+01	-1.403871e+02
1.200000e-07	-5.386809e-06	-2.139265e-09	-3.822130e+01	-1.403796e+02
1.300000e-07	-5.382225e-06	-2.135907e-09	-3.818877e+01	-1.403828e+02
1.400000e-07	-5.377255e-06	-2.017572e-09	-3.815351e+01	-1.403967e+02
1.500000e-07	-5.371839e-06	-2.009803e-09	-3.811508e+01	-1.404208e+02
1.600000e-07	-5.366075e-06	-2.173858e-09	-3.807418e+01	-1.404548e+02
1.700000e-07	-5.359958e-06	-2.205895e-09	-3.803078e+01	-1.404981e+02
1.800000e-07	-5.353376e-06	-2.008041e-09	-3.798408e+01	-1.405502e+02
1.900000e-07	-5.346405e-06	-2.011004e-09	-3.793462e+01	-1.406104e+02
2.000000e-07	-5.339170e-06	-2.179896e-09	-3.788328e+01	-1.406777e+02
2.100000e-07	-5.331641e-06	-2.213233e-09	-3.782986e+01	-1.407515e+02
2.200000e-07	-5.323866e-06	-2.062880e-09	-3.777470e+01	-1.408307e+02
2.300000e-07	-5.315981e-06	-2.128004e-09	-3.771875e+01	-1.409144e+02
2.400000e-07	-5.307804e-06	-2.271392e-09	-3.766073e+01	-1.410014e+02
2.500000e-07	-5.299077e-06	-2.223009e-09	-3.759881e+01	-1.410907e+02
2.600000e-07	-5.289656e-06	-2.140957e-09	-3.753197e+01	-1.411810e+02
2.700000e-07	-5.279618e-06	-2.256188e-09	-3.746074e+01	-1.412713e+02
2.800000e-07	-5.269062e-06	-2.321942e-09	-3.738584e+01	-1.413602e+02
2.900000e-07	-5.257989e-06	-2.190063e-09	-3.730727e+01	-1.414465e+02
3.000000e-07	-5.246486e-06	-2.175643e-09	-3.722566e+01	-1.415291e+02
3.100000e-07	-5.234612e-06	-2.304906e-09	-3.714140e+01	-1.416067e+02
3.200000e-07	-5.222320e-06	-2.274813e-09	-3.705419e+01	-1.416781e+02
3.300000e-07	-5.209634e-06	-2.144886e-09	-3.696418e+01	-1.417421e+02
3.400000e-07	-5.196605e-06	-2.214564e-09	-3.687174e+01	-1.417977e+02
3.500000e-07	-5.183089e-06	-2.285460e-09	-3.677583e+01	-1.418437e+02
3.600000e-07	-5.169219e-06	-2.221093e-09	-3.667742e+01	-1.418792e+02
3.700000e-07	-5.155057e-06	-2.184021e-09	-3.657693e+01	-1.419033e+02
3.800000e-07	-5.140361e-06	-2.240670e-09	-3.647267e+01	-1.419149e+02
3.900000e-07	-5.124979e-06	-2.193945e-09	-3.636353e+01	-1.419135e+02
4.000000e-07	-5.109056e-06	-2.171248e-09	-3.625054e+01	-1.418982e+02
4.100000e-07	-5.092763e-06	-2.224588e-09	-3.613494e+01	-1.418685e+02
4.200000e-07	-5.076083e-06	-2.220920e-09	-3.601659e+01	-1.418239e+02
4.300000e-07	-5.059025e-06	-2.156035e-09	-3.589556e+01	-1.417640e+02
4.400000e-07	-5.041698e-06	-2.214153e-09	-3.577262e+01	-1.416885e+02
4.500000e-07	-5.024116e-06	-2.251968e-09	-3.564787e+01	-1.415972e+02
4.600000e-07	-5.006180e-06	-2.185670e-09	-3.552060e+01	-1.414902e+02
4.700000e-07	-4.987916e-06	-2.147717e-09	-3.539101e+01	-1.413673e+02
4.800000e-07	-4.969293e-06	-2.199261e-09	-3.525887e+01	-1.412289e+02
4.900000e-07	-4.950206e-06	-2.198483e-09	-3.512345e+01	-1.410750e+02
5.000000e-07	-4.930795e-06	-2.167144e-09	-3.498572e+01	-1.409061e+02
5.100000e-07	-4.911135e-06	-2.159351e-09	-3.484622e+01	-1.407226e+02
5.200000e-07	-4.891182e-06	-2.170810e-09	-3.470465e+01	-1.405251e+02
5.300000e-07	-4.871005e-06	-2.184855e-09	-3.456149e+01	-1.403141e+02
5.400000e-07	-4.850564e-06	-2.189532e-09	-3.441645e+01	-1.400904e+02
5.500000e-07	-4.829816e-06	-2.162877e-09	-3.426924e+01	-1.398547e+02
5.600000e-07	-4.808746e-06	-2.154531e-09	-3.411974e+01	-1.396078e+02
5.700000e-07	-4.787315e-06	-2.180066e-09	-3.396768e+01	-1.393507e+02
5.800000e-07	-4.765506e-06	-2.172999e-09	-3.381294e+01	-1.390842e+02
5.900000e-07	-4.743328e-06	-2.138856e-09	-3.365557e+01	-1.388092e+02
6.000000e-07	-4.720847e-06	-2.124620e-09	-3.349607e+01	-1.385268e+02
6.100000e-07	-4.698069e-06	-2.136925e-09	-3.333444e+01	-1.382380e+02
6.200000e-07	-4.674961e-06	-2.146564e-09	-3.317048e+01	-1.379436e+02
6.300000e-07	-4.651531e-06	-2.144006e-09	-3.300424e+01	-1.376447e+02
6.400000e-07	-4.627864e-06	-2.121737e-09	-3.283632e+01	-1.373423e+02
6.500000e-07	-4.604013e-06	-2.129203e-09	-3.266708e+01	-1.370372e+02
6.600000e-07	-4.579958e-06	-2.149436e-09	-3.249641e+01	-1.367304e+02
6.700000e-07	-4.555611e-06	-2.136532e-09	-3.232366e+01	-1.364227e+02
6.800000e-07	-4.530924e-06	-2.096768e-09	-3.214850e+01	-1.361149e+02
6.900000e-07	-4.505742e-06	-2.095380e-09	-3.196982e+01	-1.358077e+02
7.000000e-07	-4.479969e-06	-2.104276e-09	-3.178695e+01	-1.355019e+02
7.100000e-07	-4.453750e-06	-2.100469e-09	-3.160091e+01	-1.351981e+02
7.200000e-07	-4.427082e-06	-2.083075e-09	-3.141170e+01	-1.348966e+02
7.300000e-07	-4.399957e-06	-2.083773e-09	-3.121924e+01	-1.345981e+02
7.400000e-07	-4.372499e-06	-2.095473e-09	-3.102441e+01	-1.343029e+02
7.500000e-07	-4.344797e-06	-2.105008e-09	-3.082786e+01	-1.340112e+02
7.600000e-07	-4.316894e-06	-2.083701e-09	-3.062987e+01	-1.337233e+02
7.700000e-07	-4.288769e-06	-2.063893e-09	-3.043032e+01	-1.334392e+02
7.800000e-07	-4.260416e-06	-2.062596e-09	-3.022915e+01	-1.331589e+02
7.900000e-07	-4.231800e-06	-2.064506e-09	-3.002610e+01	-1.328825e+02
8.000000e-07	-4.202909e-06	-2.050638e-09	-2.982112e+01	-1.326098e+02
8.100000e-07	-4.173759e-06	-2.042885e-09	-2.961428e+01	-1.323405e+02
8.200000e-07	-4.144260e-06	-2.046395e-09	-2.940498e+01	-1.320744e+02
8.300000e-07	-4.114530e-06	-2.054007e-09	-2.919403e+01	-1.318111e+02
8.400000e-07	-4.084598e-06	-2.049630e-09	-2.898166e+01	-1.315502e+02
8.500000e-07	-4.054319e-06	-2.034512e-09	-2.876681e+01	-1.312912e+02
8.600000e-07	-4.023751e-06	-2.024282e-09	-2.854993e+01	-1.310335e+02
8.700000e-07	-3.992951e-06	-2.023903e-09	-2.833138e+01	-1.307767e+02
8.800000e-07	-3.961882e-06	-2.020999e-09	-2.811094e+01	-1.305201e+02
8.900000e-07	-3.930509e-06	-2.008000e-09	-2.788834e+01	-1.302631e+02
9.000000e-07	-3.898839e-06	-1.998793e-09	-2.766363e+01	-1.300049e+02
9.100000e-07	-3.866985e-06	-1.998638e-09	-2.743761e+01	-1.297451e+02
9.200000e-07	-3.834974e-06	-2.003134e-09	-2.721049e+01	-1.294829e+02
9.300000e-07	-3.802822e-06	-1.996179e-09	-2.698235e+01	-1.292177e+02
9.400000e-07	-3.770479e-06	-1.989521e-09	-2.675287e+01	-1.289488e+02
9.500000e-07	-3.737808e-06	-1.989779e-09	-2.652105e+01	-1.286756e+02
9.600000e-07	-3.704825e-06	-1.992673e-09	-2.628703e+01	-1.283975e+02
9.700000e-07	-3.671435e-06	-1.982582e-09	-2.605012e+01	-1.281139e+02
9.800000e-07	-3.637546e-06	-1.967104e-09	-2.580966e+01	-1.278244e+02
9.900000e-07	-3.603273e-06	-1.955615e-09	-2.556648e+01	-1.275285e+02
1.000000e-06	-3.568661e-06	-1.954021e-09	-2.532090e+01	-1.272257e+02
1.010000e-06	-3.533663e-06	-1.949203e-09	-2.507258e+01	-1.269157e+02
1.020000e-06	-3.498222e-06	-1.944457e-09	-2.482111e+01	-1.265981e+02
1.030000e-06	-3.462526e-06	-1.940102e-09	-2.456783e+01	-1.262728e+02
1.040000e-06	-3.426765e-06	-1.940958e-09	-2.431410e+01	-1.259394e+02
1.050000e-06	-3.390832e-06	-1.937180e-09	-2.405914e+01	-1.255980e+02
1.060000e-06	-3.354717e-06	-1.927019e-09	-2.380289e+01	-1.252484e+02
1.070000e-06	-3.318477e-06	-1.911937e-09	-2.354575e+01	-1.248906e+02
1.080000e-06	-3.282057e-06	-1.901793e-09	-2.328734e+01	-1.245246e+02
1.090000e-06	-3.245453e-06	-1.895488e-09	-2.302763e+01	-1.241507e+02
1.100000e-06	-3.208576e-06	-1.892969e-09	-2.276597e+01	-1.237688e+02
1.110000e-06	-3.171412e-06	-1.890254e-09	-2.250228e+01	-1.233793e+02
1.120000e-06	-3.134035e-06	-1.887948e-09	-2.223708e+01	-1.229824e+02
1.130000e-06	-3.096421e-06	-1.884854e-09	-2.197019e+01	-1.225784e+02
1.140000e-06	-3.058658e-06	-1.878384e-09	-2.170225e+01	-1.221676e+02
1.150000e-06	-3.020767e-06	-1.867732e-09	-2.143340e+01	-1.217504e+02
1.160000e-06	-2.982671e-06	-1.857683e-09	-2.116310e+01	-1.213272e+02
1.170000e-06	-2.944326e-06	-1.848875e-09	-2.089103e+01	-1.208984e+02
1.180000e-06	-2.905730e-06	-1.839121e-09	-2.061717e+01	-1.204643e+02
1.190000e-06	-2.866901e-06	-1.830183e-09	-2.034166e+01	-1.200255e+02
1.200000e-06	-2.827842e-06	-1.824530e-09	-2.006453e+01	-1.195822e+02
1.210000e-06	-2.788601e-06	-1.825573e-09	-1.978610e+01	-1.191349e+02
1.220000e-06	-2.749239e-06	-1.826725e-09	-1.950681e+01	-1.186841e+02
1.230000e-06	-2.709698e-06	-1.821678e-09	-1.922626e+01	-1.182300e+02
1.240000e-06	-2.669942e-06	-1.808974e-09	-1.894417e+01	-1.177729e+02
1.250000e-06	-2.630069e-06	-1.796389e-09	-1.866126e+01	-1.173133e+02
1.260000e-06	-2.590132e-06	-1.784030e-09	-1.837790e+01	-1.168513e+02
1.270000e-06	-2.550084e-06	-1.775252e-09	-1.809374e+01	-1.163872e+02
1.280000e-06	-2.509898e-06	-1.768248e-09	-1.780861e+01	-1.159210e+02
1.290000e-06	-2.469602e-06	-1.767532e-09	-1.752269e+01	-1.154531e+02
1.300000e-06	-2.429181e-06	-1.770899e-09	-1.723589e+01	-1.149833e+02
1.310000e-06	-2.388612e-06	-1.770549e-09	-1.694804e+01	-1.145118e+02
1.320000e-06	-2.347858e-06	-1.759055e-09	-1.665887e+01	-1.140384e+02
1.330000e-06	-2.306874e-06	-1.742595e-09	-1.636808e+01	-1.135631e+02
1.340000e-06	-2.265673e-06	-1.727992e-09	-1.607574e+01	-1.130858e+02
1.350000e-06	-2.224144e-06	-1.719748e-09	-1.578108e+01	-1.126061e+02
1.360000e-06	-2.182303e-06	-1.713790e-09	-1.548420e+01	-1.121239e+02
1.370000e-06	-2.140185e-06	-1.707747e-09	-1.518536e+01	-1.116387e+02
1.380000e-06	-2.097782e-06	-1.703579e-09	-1.488450e+01	-1.111503e+02
1.390000e-06	-2.055112e-06	-1.700910e-09	-1.458174e+01	-1.106582e+02
1.400000e-06	-2.012171e-06	-1.694380e-09	-1.427706e+01	-1.101619e+02
1.410000e-06	-1.969042e-06	-1.681828e-09	-1.397104e+01	-1.096610e+02
1.420000e-06	-1.925736e-06	-1.665016e-09	-1.366377e+01	-1.091549e+02
1.430000e-06	-1.882303e-06	-1.653228e-09	-1.335560e+01	-1.086430e+02
1.440000e-06	-1.838687e-06	-1.647186e-09	-1.304613e+01	-1.081248e+02
1.450000e-06	-1.794897e-06	-1.641139e-09	-1.273542e+01	-1.075996e+02
1.460000e-06	-1.751066e-06	-1.635471e-09	-1.242443e+01	-1.070668e+02
1.470000e-06	-1.707209e-06	-1.630880e-09	-1.211324e+01	-1.065258e+02
1.480000e-06	-1.663308e-06	-1.625770e-09	-1.180175e+01	-1.059760e+02
1.490000e-06	-1.619334e-06	-1.616822e-09	-1.148974e+01	-1.054167e+02
1.500000e-06	-1.575254e-06	-1.604193e-09	-1.117698e+01	-1.048472e+02
1.510000e-06	-1.531111e-06	-1.591563e-09	-1.086377e+01	-1.042671e+02
1.520000e-06	-1.486901e-06	-1.581165e-09	-1.055008e+01	-1.036756e+02
1.530000e-06	-1.442591e-06	-1.569302e-09	-1.023569e+01	-1.030722e+02
1.540000e-06	-1.398179e-06	-1.556628e-09	-9.920572e+00	-1.024564e+02
1.550000e-06	-1.353759e-06	-1.546991e-09	-9.605397e+00	-1.018276e+02
1.560000e-06	-1.309338e-06	-1.539260e-09	-9.290210e+00	-1.011852e+02
1.570000e-06	-1.264725e-06	-1.530909e-09	-8.973665e+00	-1.005290e+02
1.580000e-06	-1.219927e-06	-1.521031e-09	-8.655808e+00	-9.985828e+01
1.590000e-06	-1.175104e-06	-1.509057e-09	-8.337775e+00	-9.917278e+01
1.600000e-06	-1.130266e-06	-1.497888e-09	-8.019632e+00	-9.847208e+01
1.610000e-06	-1.085336e-06	-1.485233e-09	-7.700841e+00	-9.775583e+01
1.620000e-06	-1.040329e-06	-1.469556e-09	-7.381496e+00	-9.702369e+01
1.630000e-06	-9.951811e-07	-1.454926e-09	-7.061158e+00	-9.627537e+01
1.640000e-06	-9.499390e-07	-1.444686e-09	-6.740150e+00	-9.551059e+01
1.650000e-06	-9.046366e-07	-1.433866e-09	-6.418714e+00	-9.472908e+01
1.660000e-06	-8.593039e-07	-1.420980e-09	-6.097062e+00	-9.393060e+01
1.670000e-06	-8.139520e-07	-1.407709e-09	-5.775275e+00	-9.311490e+01
1.680000e-06	-7.684625e-07	-1.396811e-09	-5.452510e+00	-9.228176e+01
1.690000e-06	-7.228927e-07	-1.384563e-09	-5.129177e+00	-9.143093e+01
1.700000e-06	-6.773478e-07	-1.369301e-09	-4.806020e+00	-9.056218e+01
1.710000e-06	-6.318103e-07	-1.354552e-09	-4.482916e+00	-8.967526e+01
1.720000e-06	-5.862178e-07	-1.343407e-09	-4.159421e+00	-8.876988e+01
1.730000e-06	-5.405999e-07	-1.334259e-09	-3.835746e+00	-8.784576e+01
1.740000e-06	-4.948705e-07	-1.321321e-09	-3.511279e+00	-8.690256e+01
1.750000e-06	-4.490805e-07	-1.304234e-09	-3.186384e+00	-8.593994e+01
1.760000e-06	-4.033002e-07	-1.288234e-09	-2.861556e+00	-8.495748e+01
1.770000e-06	-3.574886e-07	-1.272950e-09	-2.536507e+00	-8.395475e+01
1.780000e-06	-3.116835e-07	-1.255699e-09	-2.211504e+00	-8.293124e+01
1.790000e-06	-2.658679e-07	-1.239102e-09	-1.886426e+00	-8.188641e+01
1.800000e-06	-2.200237e-07	-1.225450e-09	-1.561145e+00	-8.081964e+01
1.810000e-06	-1.741553e-07	-1.211120e-09	-1.235693e+00	-7.973028e+01
1.820000e-06	-1.282555e-07	-1.192341e-09	-9.100174e-01	-7.861759e+01
1.830000e-06	-8.237315e-08	-1.171584e-09	-5.844663e-01	-7.748078e+01
1.840000e-06	-3.649227e-08	-1.151199e-09	-2.589254e-01	-7.631900e+01
1.850000e-06	9.466846e-09	-1.133866e-09	6.717059e-02	-7.513133e+01
1.860000e-06	5.545779e-08	-1.119991e-09	3.934925e-01	-7.391679e+01
1.870000e-06	1.014536e-07	-1.105443e-09	7.198490e-01	-7.267434e+01
1.880000e-06	1.473666e-07	-1.089481e-09	1.045617e+00	-7.140290e+01
1.890000e-06	1.932162e-07	-1.070323e-09	1.370936e+00	-7.010132e+01
1.900000e-06	2.390825e-07	-1.043779e-09	1.696374e+00	-6.876842e+01
1.910000e-06	2.848805e-07	-1.013140e-09	2.021327e+00	-6.740296e+01
1.920000e-06	3.305779e-07	-9.842274e-10	2.345566e+00	-6.600371e+01
1.930000e-06	3.763300e-07	-9.614307e-10	2.670193e+00	-6.456936e+01
1.940000e-06	4.221433e-07	-9.418565e-10	2.995255e+00	-6.309864e+01
1.950000e-06	4.679067e-07	-9.209828e-10	3.319962e+00	-6.159024e+01
1.960000e-06	5.136154e-07	-9.002190e-10	3.644281e+00	-6.004286e+01
1.970000e-06	5.592777e-07	-8.791656e-10	3.968271e+00	-5.845523e+01
1.980000e-06	6.049284e-07	-8.525603e-10	4.292179e+00	-5.682611e+01
1.990000e-06	6.505114e-07	-8.204916e-10	4.615606e+00	-5.515427e+01
2.000000e-06	6.960012e-07	-7.868571e-10	4.938372e+00	-5.343856e+01
2.010000e-06	7.414574e-07	-7.569220e-10	5.260900e+00	-5.167788e+01
2.020000e-06	7.868794e-07	-7.313824e-10	5.583185e+00	-4.987122e+01
2.030000e-06	8.322786e-07	-7.063288e-10	5.905309e+00	-4.801763e+01
2.040000e-06	8.775987e-07	-6.797875e-10	6.226870e+00	-4.611629e+01
2.050000e-06	9.228506e-07	-6.534733e-10	6.547948e+00	-4.416647e+01
2.060000e-06	9.681458e-07	-6.249932e-10	6.869334e+00	-4.216757e+01
2.070000e-06	1.013354e-06	-5.906514e-10	7.190104e+00	-4.011912e+01
2.080000e-06	1.058383e-06	-5.539067e-10	7.509599e+00	-3.802081e+01
2.090000e-06	1.103309e-06	-5.197073e-10	7.828362e+00	-3.587247e+01
2.100000e-06	1.148194e-06	-4.891379e-10	8.146838e+00	-3.367407e+01
2.110000e-06	1.192896e-06	-4.582167e-10	8.464013e+00	-3.142579e+01
2.120000e-06	1.237445e-06	-4.231896e-10	8.780109e+00	-2.912796e+01
2.130000e-06	1.281991e-06	-3.874862e-10	9.096177e+00	-2.678108e+01
2.140000e-06	1.326481e-06	-3.548043e-10	9.411848e+00	-2.438588e+01
2.150000e-06	1.370878e-06	-3.208219e-10	9.726859e+00	-2.194323e+01
2.160000e-06	1.415192e-06	-2.821455e-10	1.004128e+01	-1.945422e+01
2.170000e-06	1.459438e-06	-2.433875e-10	1.035522e+01	-1.692011e+01
2.180000e-06	1.503639e-06	-2.094809e-10	1.066884e+01	-1.434237e+01
2.190000e-06	1.547838e-06	-1.749323e-10	1.098245e+01	-1.172265e+01
2.200000e-06	1.591956e-06	-1.337542e-10	1.129549e+01	-9.062777e+00
2.210000e-06	1.635961e-06	-8.978521e-11	1.160772e+01	-6.364770e+00
2.220000e-06	1.679904e-06	-4.984043e-11	1.191951e+01	-3.630816e+00
2.230000e-06	1.723772e-06	-1.117315e-11	1.223077e+01	-8.632691e-01
2.240000e-06	1.767580e-06	3.292408e-11	1.254160e+01	1.935357e+00
2.250000e-06	1.811369e-06	7.964297e-11	1.285230e+01	4.762402e+00
2.260000e-06	1.855044e-06	1.227600e-10	1.316219e+01	7.615065e+00
2.270000e-06	1.898540e-06	1.631630e-10	1.347081e+01	1.049042e+01
2.280000e-06	1.941856e-06	2.045725e-10	1.377815e+01	1.338542e+01
2.290000e-06	1.985032e-06	2.496617e-10	1.408450e+01	1.629694e+01
2.300000e-06	2.028044e-06	2.946046e-10	1.438968e+01	1.922174e+01
2.310000e-06	2.070730e-06	3.358016e-10	1.469255e+01	2.215651e+01
2.320000e-06	2.113146e-06	3.780085e-10	1.499351e+01	2.509791e+01
2.330000e-06	2.155418e-06	4.236480e-10	1.529345e+01	2.804253e+01
2.340000e-06	2.197498e-06	4.673891e-10	1.559202e+01	3.098694e+01
2.350000e-06	2.239235e-06	5.064069e-10	1.588816e+01	3.392772e+01
2.360000e-06	2.280643e-06	5.459822e-10	1.618196e+01	3.686142e+01
2.370000e-06	2.321861e-06	5.901517e-10	1.647442e+01	3.978463e+01
2.380000e-06	2.362755e-06	6.359444e-10	1.676458e+01	4.269398e+01
2.390000e-06	2.403285e-06	6.799617e-10	1.705215e+01	4.558614e+01
2.400000e-06	2.443671e-06	7.240903e-10	1.733870e+01	4.845786e+01
2.410000e-06	2.483971e-06	7.690129e-10	1.762464e+01	5.130594e+01
2.420000e-06	2.524123e-06	8.110717e-10	1.790954e+01	5.412730e+01
2.430000e-06	2.564178e-06	8.497531e-10	1.819375e+01	5.691895e+01
2.440000e-06	2.604160e-06	8.886895e-10	1.847743e+01	5.967803e+01
2.450000e-06	2.644032e-06	9.307513e-10	1.876033e+01	6.240179e+01
2.460000e-06	2.683789e-06	9.743054e-10	1.904242e+01	6.508762e+01
2.470000e-06	2.723438e-06	1.015523e-09	1.932374e+01	6.773306e+01
2.480000e-06	2.762938e-06	1.052721e-09	1.960401e+01	7.033581e+01
2.490000e-06	2.802238e-06	1.090262e-09	1.988286e+01	7.289370e+01
2.500000e-06	2.841387e-06	1.129480e-09	2.016064e+01	7.540476e+01
2.510000e-06	2.880296e-06	1.168370e-09	2.043671e+01	7.786715e+01
2.520000e-06	2.918897e-06	1.207707e-09	2.071060e+01	8.027925e+01
2.530000e-06	2.957279e-06	1.248696e-09	2.098293e+01	8.263956e+01
2.540000e-06	2.995484e-06	1.288910e-09	2.125401e+01	8.494678e+01
2.550000e-06	3.033525e-06	1.321376e-09	2.152392e+01	8.719979e+01
2.560000e-06	3.071388e-06	1.345921e-09	2.179257e+01	8.939763e+01
2.570000e-06	3.109014e-06	1.370691e-09	2.205954e+01	9.153951e+01
2.580000e-06	3.146463e-06	1.400433e-09	2.232526e+01	9.362482e+01
2.590000e-06	3.183761e-06	1.431861e-09	2.258990e+01	9.565308e+01
2.600000e-06	3.220765e-06	1.463807e-09	2.285245e+01	9.762400e+01
2.610000e-06	3.257442e-06	1.500353e-09	2.311269e+01	9.953743e+01
2.620000e-06	3.293861e-06	1.538542e-09	2.337110e+01	1.013934e+02
2.630000e-06	3.330088e-06	1.570480e-09	2.362814e+01	1.031919e+02
2.640000e-06	3.366204e-06	1.594919e-09	2.388440e+01	1.049334e+02
2.650000e-06	3.402265e-06	1.612876e-09	2.414026e+01	1.066181e+02
2.660000e-06	3.438176e-06	1.627852e-09	2.439507e+01	1.082466e+02
2.670000e-06	3.473880e-06	1.640142e-09	2.464839e+01	1.098196e+02
2.680000e-06	3.509339e-06	1.653970e-09	2.489999e+01	1.113376e+02
2.690000e-06	3.544534e-06	1.675202e-09	2.514971e+01	1.128015e+02
2.700000e-06	3.579438e-06	1.707279e-09	2.539736e+01	1.142121e+02
2.710000e-06	3.613941e-06	1.744038e-09	2.564218e+01	1.155705e+02
2.720000e-06	3.647953e-06	1.774793e-09	2.588350e+01	1.168776e+02
2.730000e-06	3.681538e-06	1.796965e-09	2.612180e+01	1.181345e+02
2.740000e-06	3.714756e-06	1.811576e-09	2.635749e+01	1.193424e+02
2.750000e-06	3.747513e-06	1.818907e-09	2.658992e+01	1.205023e+02
2.760000e-06	3.779982e-06	1.821303e-09	2.682030e+01	1.216154e+02
2.770000e-06	3.812298e-06	1.826667e-09	2.704959e+01	1.226831e+02
2.780000e-06	3.844384e-06	1.843493e-09	2.727725e+01	1.237065e+02
2.790000e-06	3.876319e-06	1.870403e-09	2.750384e+01	1.246869e+02
2.800000e-06	3.908099e-06	1.895840e-09	2.772933e+01	1.256255e+02
2.810000e-06	3.939661e-06	1.911709e-09	2.795328e+01	1.265237e+02
2.820000e-06	3.970972e-06	1.921015e-09	2.817544e+01	1.273827e+02
2.830000e-06	4.001979e-06	1.928556e-09	2.839544e+01	1.282038e+02
2.840000e-06	4.032687e-06	1.931914e-09	2.861333e+01	1.289882e+02
2.850000e-06	4.063080e-06	1.934622e-09	2.882898e+01	1.297373e+02
2.860000e-06	4.093201e-06	1.945053e-09	2.904270e+01	1.304522e+02
2.870000e-06	4.123107e-06	1.965169e-09	2.925489e+01	1.311341e+02
2.880000e-06	4.152759e-06	1.984307e-09	2.946528e+01	1.317844e+02
2.890000e-06	4.182166e-06	1.995105e-09	2.967393e+01	1.324042e+02
2.900000e-06	4.211302e-06	1.998842e-09	2.988066e+01	1.329947e+02
