# Temperatura_=_17.93
# Concentracion g/m^3_=_4090.0
# C_Vs_to_Am_M_A/Vsm_=_65563218390.804596
# pendiente_HvsI_1/m_=_3716.3
# ordenada_HvsI_A/m_=_1297.0
# frecuencia_Hz_=_135083.25215575338

Tiempo_(s)	Campo_(V.s)	Magnetizacion_(V.s)	Campo_(kA/m)	Magnetizacion_(A/m)
0.000000e+00	-5.415184e-06	-1.266701e-09	-3.838157e+01	-8.505635e+01
1.000000e-08	-5.415365e-06	-1.262141e-09	-3.838285e+01	-8.489731e+01
2.000000e-08	-5.415346e-06	-1.256471e-09	-3.838271e+01	-8.474662e+01
3.000000e-08	-5.415095e-06	-1.249695e-09	-3.838094e+01	-8.460524e+01
4.000000e-08	-5.414454e-06	-1.245454e-09	-3.837639e+01	-8.447402e+01
5.000000e-08	-5.413331e-06	-1.245670e-09	-3.836843e+01	-8.435374e+01
6.000000e-08	-5.411636e-06	-1.252222e-09	-3.835641e+01	-8.424508e+01
7.000000e-08	-5.409217e-06	-1.276760e-09	-3.833927e+01	-8.414864e+01
8.000000e-08	-5.406134e-06	-1.278320e-09	-3.831742e+01	-8.406489e+01
9.000000e-08	-5.402568e-06	-1.212829e-09	-3.829215e+01	-8.399422e+01
1.000000e-07	-5.398619e-06	-1.175215e-09	-3.826416e+01	-8.393688e+01
1.100000e-07	-5.394431e-06	-1.271782e-09	-3.823447e+01	-8.389300e+01
1.200000e-07	-5.390091e-06	-1.319734e-09	-3.820371e+01	-8.386260e+01
1.300000e-07	-5.385444e-06	-1.242064e-09	-3.817077e+01	-8.384558e+01
1.400000e-07	-5.380374e-06	-1.174193e-09	-3.813484e+01	-8.384170e+01
1.500000e-07	-5.374965e-06	-1.281927e-09	-3.809650e+01	-8.385062e+01
1.600000e-07	-5.369242e-06	-1.356665e-09	-3.805594e+01	-8.387186e+01
1.700000e-07	-5.363111e-06	-1.231262e-09	-3.801249e+01	-8.390483e+01
1.800000e-07	-5.356431e-06	-1.136864e-09	-3.796514e+01	-8.394883e+01
1.900000e-07	-5.349350e-06	-1.216225e-09	-3.791495e+01	-8.400305e+01
2.000000e-07	-5.342069e-06	-1.307772e-09	-3.786334e+01	-8.406659e+01
2.100000e-07	-5.334522e-06	-1.238818e-09	-3.780985e+01	-8.413846e+01
2.200000e-07	-5.326720e-06	-1.235476e-09	-3.775455e+01	-8.421756e+01
2.300000e-07	-5.318682e-06	-1.325489e-09	-3.769758e+01	-8.430274e+01
2.400000e-07	-5.310231e-06	-1.355856e-09	-3.763768e+01	-8.439278e+01
2.500000e-07	-5.301267e-06	-1.288797e-09	-3.757415e+01	-8.448641e+01
2.600000e-07	-5.291739e-06	-1.321766e-09	-3.750662e+01	-8.458231e+01
2.700000e-07	-5.281545e-06	-1.389184e-09	-3.743437e+01	-8.467913e+01
2.800000e-07	-5.270746e-06	-1.345433e-09	-3.735782e+01	-8.477551e+01
2.900000e-07	-5.259419e-06	-1.303856e-09	-3.727754e+01	-8.487008e+01
3.000000e-07	-5.247696e-06	-1.372834e-09	-3.719445e+01	-8.496147e+01
3.100000e-07	-5.235669e-06	-1.391932e-09	-3.710920e+01	-8.504833e+01
3.200000e-07	-5.223399e-06	-1.328580e-09	-3.702224e+01	-8.512934e+01
3.300000e-07	-5.210703e-06	-1.329467e-09	-3.693225e+01	-8.520322e+01
3.400000e-07	-5.197485e-06	-1.376252e-09	-3.683856e+01	-8.526873e+01
3.500000e-07	-5.183883e-06	-1.365810e-09	-3.674215e+01	-8.532471e+01
3.600000e-07	-5.169975e-06	-1.358898e-09	-3.664358e+01	-8.537006e+01
3.700000e-07	-5.155682e-06	-1.379164e-09	-3.654228e+01	-8.540377e+01
3.800000e-07	-5.140766e-06	-1.352026e-09	-3.643656e+01	-8.542490e+01
3.900000e-07	-5.125173e-06	-1.335924e-09	-3.632603e+01	-8.543263e+01
4.000000e-07	-5.109041e-06	-1.360277e-09	-3.621169e+01	-8.542622e+01
4.100000e-07	-5.092708e-06	-1.352305e-09	-3.609593e+01	-8.540506e+01
4.200000e-07	-5.076020e-06	-1.308035e-09	-3.597765e+01	-8.536863e+01
4.300000e-07	-5.058824e-06	-1.334399e-09	-3.585577e+01	-8.531654e+01
4.400000e-07	-5.041380e-06	-1.369507e-09	-3.573213e+01	-8.524850e+01
4.500000e-07	-5.023705e-06	-1.351185e-09	-3.560685e+01	-8.516435e+01
4.600000e-07	-5.005706e-06	-1.315619e-09	-3.547928e+01	-8.506406e+01
4.700000e-07	-4.987278e-06	-1.317633e-09	-3.534867e+01	-8.494769e+01
4.800000e-07	-4.968504e-06	-1.314003e-09	-3.521560e+01	-8.481543e+01
4.900000e-07	-4.949370e-06	-1.309132e-09	-3.507998e+01	-8.466757e+01
5.000000e-07	-4.929842e-06	-1.292530e-09	-3.494157e+01	-8.450450e+01
5.100000e-07	-4.910063e-06	-1.280597e-09	-3.480139e+01	-8.432674e+01
5.200000e-07	-4.890084e-06	-1.298316e-09	-3.465978e+01	-8.413487e+01
5.300000e-07	-4.869879e-06	-1.326189e-09	-3.451657e+01	-8.392956e+01
5.400000e-07	-4.849318e-06	-1.304474e-09	-3.437084e+01	-8.371157e+01
5.500000e-07	-4.828443e-06	-1.276857e-09	-3.422288e+01	-8.348173e+01
5.600000e-07	-4.807302e-06	-1.281066e-09	-3.407304e+01	-8.324091e+01
5.700000e-07	-4.785841e-06	-1.288476e-09	-3.392093e+01	-8.299006e+01
5.800000e-07	-4.764056e-06	-1.271900e-09	-3.376652e+01	-8.273014e+01
5.900000e-07	-4.741964e-06	-1.255678e-09	-3.360994e+01	-8.246215e+01
6.000000e-07	-4.719539e-06	-1.255373e-09	-3.345099e+01	-8.218712e+01
6.100000e-07	-4.696819e-06	-1.274170e-09	-3.328996e+01	-8.190608e+01
6.200000e-07	-4.673757e-06	-1.284646e-09	-3.312650e+01	-8.162006e+01
6.300000e-07	-4.650274e-06	-1.262240e-09	-3.296006e+01	-8.133008e+01
6.400000e-07	-4.626527e-06	-1.243055e-09	-3.279175e+01	-8.103714e+01
6.500000e-07	-4.602621e-06	-1.254829e-09	-3.262231e+01	-8.074221e+01
6.600000e-07	-4.578568e-06	-1.263950e-09	-3.245183e+01	-8.044622e+01
6.700000e-07	-4.554266e-06	-1.244388e-09	-3.227958e+01	-8.015005e+01
6.800000e-07	-4.529643e-06	-1.230484e-09	-3.210505e+01	-7.985454e+01
6.900000e-07	-4.504537e-06	-1.236640e-09	-3.192711e+01	-7.956044e+01
7.000000e-07	-4.478735e-06	-1.247898e-09	-3.174423e+01	-7.926847e+01
7.100000e-07	-4.452414e-06	-1.239078e-09	-3.155767e+01	-7.897924e+01
7.200000e-07	-4.425621e-06	-1.223740e-09	-3.136777e+01	-7.869333e+01
7.300000e-07	-4.398273e-06	-1.221725e-09	-3.117394e+01	-7.841119e+01
7.400000e-07	-4.370608e-06	-1.237929e-09	-3.097785e+01	-7.813322e+01
7.500000e-07	-4.342798e-06	-1.239679e-09	-3.078074e+01	-7.785972e+01
7.600000e-07	-4.314843e-06	-1.228223e-09	-3.058261e+01	-7.759092e+01
7.700000e-07	-4.286719e-06	-1.220806e-09	-3.038326e+01	-7.732696e+01
7.800000e-07	-4.258349e-06	-1.224875e-09	-3.018219e+01	-7.706789e+01
7.900000e-07	-4.229707e-06	-1.218778e-09	-2.997918e+01	-7.681369e+01
8.000000e-07	-4.200705e-06	-1.203690e-09	-2.977362e+01	-7.656427e+01
8.100000e-07	-4.171321e-06	-1.192945e-09	-2.956536e+01	-7.631943e+01
8.200000e-07	-4.141685e-06	-1.199575e-09	-2.935530e+01	-7.607895e+01
8.300000e-07	-4.111840e-06	-1.207707e-09	-2.914376e+01	-7.584250e+01
8.400000e-07	-4.081810e-06	-1.203186e-09	-2.893092e+01	-7.560974e+01
8.500000e-07	-4.051478e-06	-1.191074e-09	-2.871594e+01	-7.538023e+01
8.600000e-07	-4.020843e-06	-1.189434e-09	-2.849880e+01	-7.515351e+01
8.700000e-07	-3.989885e-06	-1.190174e-09	-2.827938e+01	-7.492908e+01
8.800000e-07	-3.958597e-06	-1.179092e-09	-2.805761e+01	-7.470642e+01
8.900000e-07	-3.927205e-06	-1.160873e-09	-2.783511e+01	-7.448495e+01
9.000000e-07	-3.895586e-06	-1.155639e-09	-2.761101e+01	-7.426411e+01
9.100000e-07	-3.863734e-06	-1.163223e-09	-2.738525e+01	-7.404331e+01
9.200000e-07	-3.831779e-06	-1.165745e-09	-2.715876e+01	-7.382197e+01
9.300000e-07	-3.799558e-06	-1.158513e-09	-2.693038e+01	-7.359951e+01
9.400000e-07	-3.767047e-06	-1.155430e-09	-2.669995e+01	-7.337535e+01
9.500000e-07	-3.734273e-06	-1.160370e-09	-2.646766e+01	-7.314896e+01
9.600000e-07	-3.701235e-06	-1.159392e-09	-2.623349e+01	-7.291981e+01
9.700000e-07	-3.667812e-06	-1.146895e-09	-2.599660e+01	-7.268741e+01
9.800000e-07	-3.633802e-06	-1.132966e-09	-2.575555e+01	-7.245128e+01
9.900000e-07	-3.599260e-06	-1.129809e-09	-2.551072e+01	-7.221103e+01
1.000000e-06	-3.564365e-06	-1.126994e-09	-2.526339e+01	-7.196627e+01
1.010000e-06	-3.529263e-06	-1.121415e-09	-2.501459e+01	-7.171668e+01
1.020000e-06	-3.493864e-06	-1.115601e-09	-2.476369e+01	-7.146197e+01
1.030000e-06	-3.458235e-06	-1.118028e-09	-2.451117e+01	-7.120192e+01
1.040000e-06	-3.422494e-06	-1.120645e-09	-2.425784e+01	-7.093636e+01
1.050000e-06	-3.386582e-06	-1.114242e-09	-2.400331e+01	-7.066517e+01
1.060000e-06	-3.350551e-06	-1.100429e-09	-2.374792e+01	-7.038826e+01
1.070000e-06	-3.314355e-06	-1.090252e-09	-2.349137e+01	-7.010564e+01
1.080000e-06	-3.277979e-06	-1.084365e-09	-2.323356e+01	-6.981732e+01
1.090000e-06	-3.241349e-06	-1.080114e-09	-2.297393e+01	-6.952339e+01
1.100000e-06	-3.204362e-06	-1.076277e-09	-2.271178e+01	-6.922398e+01
1.110000e-06	-3.167039e-06	-1.075468e-09	-2.244723e+01	-6.891924e+01
1.120000e-06	-3.129512e-06	-1.075525e-09	-2.218125e+01	-6.860939e+01
1.130000e-06	-3.091861e-06	-1.070617e-09	-2.191439e+01	-6.829467e+01
1.140000e-06	-3.054041e-06	-1.058825e-09	-2.164633e+01	-6.797533e+01
1.150000e-06	-3.016012e-06	-1.049863e-09	-2.137679e+01	-6.765167e+01
1.160000e-06	-2.977749e-06	-1.047847e-09	-2.110559e+01	-6.732401e+01
1.170000e-06	-2.939267e-06	-1.047725e-09	-2.083284e+01	-6.699266e+01
1.180000e-06	-2.900594e-06	-1.043493e-09	-2.055874e+01	-6.665796e+01
1.190000e-06	-2.861720e-06	-1.034855e-09	-2.028321e+01	-6.632025e+01
1.200000e-06	-2.822561e-06	-1.028607e-09	-2.000565e+01	-6.597986e+01
1.210000e-06	-2.783145e-06	-1.024472e-09	-1.972629e+01	-6.563712e+01
1.220000e-06	-2.743554e-06	-1.019437e-09	-1.944567e+01	-6.529235e+01
1.230000e-06	-2.703842e-06	-1.015669e-09	-1.916420e+01	-6.494585e+01
1.240000e-06	-2.664046e-06	-1.015288e-09	-1.888214e+01	-6.459790e+01
1.250000e-06	-2.624150e-06	-1.016375e-09	-1.859937e+01	-6.424875e+01
1.260000e-06	-2.584171e-06	-1.014000e-09	-1.831601e+01	-6.389863e+01
1.270000e-06	-2.544088e-06	-1.003632e-09	-1.803190e+01	-6.354774e+01
1.280000e-06	-2.503897e-06	-9.888563e-10	-1.774704e+01	-6.319622e+01
1.290000e-06	-2.463622e-06	-9.758897e-10	-1.746158e+01	-6.284421e+01
1.300000e-06	-2.423199e-06	-9.658441e-10	-1.717507e+01	-6.249179e+01
1.310000e-06	-2.382552e-06	-9.604080e-10	-1.688697e+01	-6.213899e+01
1.320000e-06	-2.341665e-06	-9.591661e-10	-1.659717e+01	-6.178583e+01
1.330000e-06	-2.300483e-06	-9.615431e-10	-1.630529e+01	-6.143226e+01
1.340000e-06	-2.259062e-06	-9.632083e-10	-1.601171e+01	-6.107821e+01
1.350000e-06	-2.217325e-06	-9.591125e-10	-1.571589e+01	-6.072354e+01
1.360000e-06	-2.175207e-06	-9.490900e-10	-1.541736e+01	-6.036810e+01
1.370000e-06	-2.132863e-06	-9.351647e-10	-1.511724e+01	-6.001169e+01
1.380000e-06	-2.090351e-06	-9.223509e-10	-1.481592e+01	-5.965408e+01
1.390000e-06	-2.047571e-06	-9.146351e-10	-1.451271e+01	-5.929498e+01
1.400000e-06	-2.004568e-06	-9.123537e-10	-1.420791e+01	-5.893410e+01
1.410000e-06	-1.961422e-06	-9.132722e-10	-1.390211e+01	-5.857110e+01
1.420000e-06	-1.918106e-06	-9.135465e-10	-1.359509e+01	-5.820563e+01
1.430000e-06	-1.874706e-06	-9.114846e-10	-1.328748e+01	-5.783730e+01
1.440000e-06	-1.831130e-06	-9.057832e-10	-1.297862e+01	-5.746572e+01
1.450000e-06	-1.787361e-06	-8.949141e-10	-1.266840e+01	-5.709045e+01
1.460000e-06	-1.743512e-06	-8.829427e-10	-1.235761e+01	-5.671107e+01
1.470000e-06	-1.699610e-06	-8.732091e-10	-1.204644e+01	-5.632714e+01
1.480000e-06	-1.655603e-06	-8.678610e-10	-1.173453e+01	-5.593819e+01
1.490000e-06	-1.611522e-06	-8.643869e-10	-1.142209e+01	-5.554377e+01
1.500000e-06	-1.567433e-06	-8.605324e-10	-1.110960e+01	-5.514342e+01
1.510000e-06	-1.523252e-06	-8.588862e-10	-1.079646e+01	-5.473668e+01
1.520000e-06	-1.478977e-06	-8.590853e-10	-1.048264e+01	-5.432308e+01
1.530000e-06	-1.434647e-06	-8.522442e-10	-1.016844e+01	-5.390218e+01
1.540000e-06	-1.390268e-06	-8.393037e-10	-9.853897e+00	-5.347351e+01
1.550000e-06	-1.345853e-06	-8.257879e-10	-9.539095e+00	-5.303664e+01
1.560000e-06	-1.301369e-06	-8.175276e-10	-9.223798e+00	-5.259111e+01
1.570000e-06	-1.256870e-06	-8.134315e-10	-8.908402e+00	-5.213651e+01
1.580000e-06	-1.212260e-06	-8.090404e-10	-8.592220e+00	-5.167240e+01
1.590000e-06	-1.167452e-06	-8.049198e-10	-8.274629e+00	-5.119836e+01
1.600000e-06	-1.122616e-06	-8.001558e-10	-7.956844e+00	-5.071398e+01
1.610000e-06	-1.077729e-06	-7.924292e-10	-7.638691e+00	-5.021885e+01
1.620000e-06	-1.032613e-06	-7.822665e-10	-7.318922e+00	-4.971256e+01
1.630000e-06	-9.874488e-07	-7.713917e-10	-6.998808e+00	-4.919472e+01
1.640000e-06	-9.422502e-07	-7.628134e-10	-6.678450e+00	-4.866491e+01
1.650000e-06	-8.969231e-07	-7.556911e-10	-6.357182e+00	-4.812272e+01
1.660000e-06	-8.515420e-07	-7.449791e-10	-6.035532e+00	-4.756776e+01
1.670000e-06	-8.060581e-07	-7.335817e-10	-5.713152e+00	-4.699960e+01
1.680000e-06	-7.605584e-07	-7.275419e-10	-5.390661e+00	-4.641782e+01
1.690000e-06	-7.150857e-07	-7.225633e-10	-5.068361e+00	-4.582199e+01
1.700000e-06	-6.694537e-07	-7.121835e-10	-4.744932e+00	-4.521165e+01
1.710000e-06	-6.237041e-07	-7.006561e-10	-4.420670e+00	-4.458634e+01
1.720000e-06	-5.779547e-07	-6.915445e-10	-4.096408e+00	-4.394559e+01
1.730000e-06	-5.321864e-07	-6.838793e-10	-3.772014e+00	-4.328890e+01
1.740000e-06	-4.864260e-07	-6.721398e-10	-3.447675e+00	-4.261574e+01
1.750000e-06	-4.406303e-07	-6.571050e-10	-3.123085e+00	-4.192560e+01
1.760000e-06	-3.948221e-07	-6.424322e-10	-2.798407e+00	-4.121790e+01
1.770000e-06	-3.489418e-07	-6.322261e-10	-2.473218e+00	-4.049207e+01
1.780000e-06	-3.030160e-07	-6.235456e-10	-2.147707e+00	-3.974751e+01
1.790000e-06	-2.570634e-07	-6.114794e-10	-1.822005e+00	-3.898361e+01
1.800000e-06	-2.110996e-07	-5.976160e-10	-1.496225e+00	-3.819973e+01
1.810000e-06	-1.651919e-07	-5.853095e-10	-1.170842e+00	-3.739522e+01
1.820000e-06	-1.192806e-07	-5.744653e-10	-8.454334e-01	-3.656941e+01
1.830000e-06	-7.339324e-08	-5.602614e-10	-5.201942e-01	-3.572162e+01
1.840000e-06	-2.748097e-08	-5.429992e-10	-1.947788e-01	-3.485118e+01
1.850000e-06	1.842766e-08	-5.278772e-10	1.306110e-01	-3.395738e+01
1.860000e-06	6.426376e-08	-5.166134e-10	4.554866e-01	-3.303956e+01
1.870000e-06	1.101112e-07	-5.053665e-10	7.804425e-01	-3.209702e+01
1.880000e-06	1.559976e-07	-4.920930e-10	1.105674e+00	-3.112910e+01
1.890000e-06	2.019784e-07	-4.767081e-10	1.431576e+00	-3.013515e+01
1.900000e-06	2.479810e-07	-4.585350e-10	1.757631e+00	-2.911454e+01
1.910000e-06	2.939266e-07	-4.379150e-10	2.083284e+00	-2.806667e+01
1.920000e-06	3.398105e-07	-4.153854e-10	2.408498e+00	-2.699098e+01
1.930000e-06	3.856161e-07	-3.942122e-10	2.733157e+00	-2.588696e+01
1.940000e-06	4.314306e-07	-3.763488e-10	3.057880e+00	-2.475414e+01
1.950000e-06	4.772285e-07	-3.606693e-10	3.382485e+00	-2.359210e+01
1.960000e-06	5.229691e-07	-3.460295e-10	3.706683e+00	-2.240051e+01
1.970000e-06	5.685818e-07	-3.295302e-10	4.029976e+00	-2.117910e+01
1.980000e-06	6.140749e-07	-3.101183e-10	4.352420e+00	-1.992766e+01
1.990000e-06	6.596087e-07	-2.886377e-10	4.675153e+00	-1.864608e+01
2.000000e-06	7.051460e-07	-2.651670e-10	4.997911e+00	-1.733435e+01
2.010000e-06	7.506313e-07	-2.423580e-10	5.320300e+00	-1.599253e+01
2.020000e-06	7.961008e-07	-2.205511e-10	5.642578e+00	-1.462081e+01
2.030000e-06	8.415040e-07	-2.002549e-10	5.964384e+00	-1.321946e+01
2.040000e-06	8.868089e-07	-1.816942e-10	6.285495e+00	-1.178887e+01
2.050000e-06	9.320005e-07	-1.608816e-10	6.605802e+00	-1.032954e+01
2.060000e-06	9.771017e-07	-1.381549e-10	6.925470e+00	-8.842085e+00
2.070000e-06	1.022140e-06	-1.141524e-10	7.244692e+00	-7.327235e+00
2.080000e-06	1.067143e-06	-8.770229e-11	7.563661e+00	-5.785837e+00
2.090000e-06	1.112094e-06	-5.945703e-11	7.882266e+00	-4.218851e+00
2.100000e-06	1.156984e-06	-3.321226e-11	8.200433e+00	-2.627356e+00
2.110000e-06	1.201759e-06	-9.258334e-12	8.517788e+00	-1.012542e+00
2.120000e-06	1.246360e-06	1.345629e-11	8.833911e+00	6.242905e-01
2.130000e-06	1.290917e-06	3.622447e-11	9.149717e+00	2.281734e+00
2.140000e-06	1.335458e-06	5.971993e-11	9.465413e+00	3.958279e+00
2.150000e-06	1.379877e-06	8.397485e-11	9.780245e+00	5.652320e+00
2.160000e-06	1.424139e-06	1.098634e-10	1.009397e+01	7.362161e+00
2.170000e-06	1.468346e-06	1.391167e-10	1.040730e+01	9.086022e+00
2.180000e-06	1.512538e-06	1.689217e-10	1.072052e+01	1.082205e+01
2.190000e-06	1.556639e-06	1.959740e-10	1.103309e+01	1.256832e+01
2.200000e-06	1.600689e-06	2.193593e-10	1.134531e+01	1.432285e+01
2.210000e-06	1.644705e-06	2.432953e-10	1.165729e+01	1.608362e+01
2.220000e-06	1.688669e-06	2.701022e-10	1.196889e+01	1.784855e+01
2.230000e-06	1.732527e-06	2.979312e-10	1.227975e+01	1.961555e+01
2.240000e-06	1.776263e-06	3.274622e-10	1.258974e+01	2.138251e+01
2.250000e-06	1.819982e-06	3.581044e-10	1.289961e+01	2.314730e+01
2.260000e-06	1.863701e-06	3.880827e-10	1.320948e+01	2.490781e+01
2.270000e-06	1.907169e-06	4.165522e-10	1.351757e+01	2.666193e+01
2.280000e-06	1.950373e-06	4.425393e-10	1.382379e+01	2.840759e+01
2.290000e-06	1.993496e-06	4.665229e-10	1.412943e+01	3.014273e+01
2.300000e-06	2.036436e-06	4.894698e-10	1.443379e+01	3.186537e+01
2.310000e-06	2.079141e-06	5.123514e-10	1.473647e+01	3.357356e+01
2.320000e-06	2.121681e-06	5.370861e-10	1.503798e+01	3.526543e+01
2.330000e-06	2.163951e-06	5.633282e-10	1.533758e+01	3.693916e+01
2.340000e-06	2.205918e-06	5.903603e-10	1.563504e+01	3.859303e+01
2.350000e-06	2.247703e-06	6.156601e-10	1.593120e+01	4.022542e+01
2.360000e-06	2.289213e-06	6.388657e-10	1.622541e+01	4.183477e+01
2.370000e-06	2.330431e-06	6.652769e-10	1.651755e+01	4.341966e+01
2.380000e-06	2.371278e-06	6.957066e-10	1.680707e+01	4.497876e+01
2.390000e-06	2.411781e-06	7.230264e-10	1.709414e+01	4.651083e+01
2.400000e-06	2.452189e-06	7.451172e-10	1.738054e+01	4.801478e+01
2.410000e-06	2.492550e-06	7.650551e-10	1.766661e+01	4.948960e+01
2.420000e-06	2.532768e-06	7.865808e-10	1.795167e+01	5.093444e+01
2.430000e-06	2.572852e-06	8.080190e-10	1.823578e+01	5.234851e+01
2.440000e-06	2.612784e-06	8.298414e-10	1.851881e+01	5.373120e+01
2.450000e-06	2.652624e-06	8.534945e-10	1.880118e+01	5.508197e+01
2.460000e-06	2.692438e-06	8.800736e-10	1.908338e+01	5.640040e+01
2.470000e-06	2.732040e-06	9.066551e-10	1.936406e+01	5.768619e+01
2.480000e-06	2.771383e-06	9.255743e-10	1.964292e+01	5.893916e+01
2.490000e-06	2.810594e-06	9.369121e-10	1.992083e+01	6.015919e+01
2.500000e-06	2.849623e-06	9.490676e-10	2.019747e+01	6.134629e+01
2.510000e-06	2.888463e-06	9.688842e-10	2.047275e+01	6.250055e+01
2.520000e-06	2.927084e-06	9.923611e-10	2.074649e+01	6.362214e+01
2.530000e-06	2.965445e-06	1.012937e-09	2.101838e+01	6.471131e+01
2.540000e-06	3.003623e-06	1.031923e-09	2.128898e+01	6.576839e+01
2.550000e-06	3.041642e-06	1.053305e-09	2.155845e+01	6.679374e+01
2.560000e-06	3.079413e-06	1.072173e-09	2.182616e+01	6.778781e+01
2.570000e-06	3.116924e-06	1.082864e-09	2.209203e+01	6.875109e+01
2.580000e-06	3.154242e-06	1.089863e-09	2.235653e+01	6.968408e+01
2.590000e-06	3.191378e-06	1.102202e-09	2.261975e+01	7.058735e+01
2.600000e-06	3.228283e-06	1.119858e-09	2.288132e+01	7.146148e+01
2.610000e-06	3.264918e-06	1.136573e-09	2.314098e+01	7.230705e+01
2.620000e-06	3.301409e-06	1.152155e-09	2.339962e+01	7.312468e+01
2.630000e-06	3.337677e-06	1.169452e-09	2.365668e+01	7.391497e+01
2.640000e-06	3.373754e-06	1.184605e-09	2.391238e+01	7.467853e+01
2.650000e-06	3.409771e-06	1.192207e-09	2.416766e+01	7.541596e+01
2.660000e-06	3.445625e-06	1.193148e-09	2.442179e+01	7.612786e+01
2.670000e-06	3.481359e-06	1.196031e-09	2.467506e+01	7.681478e+01
2.680000e-06	3.516898e-06	1.204368e-09	2.492696e+01	7.747728e+01
2.690000e-06	3.552091e-06	1.213242e-09	2.517640e+01	7.811590e+01
2.700000e-06	3.586964e-06	1.222504e-09	2.542357e+01	7.873114e+01
2.710000e-06	3.621504e-06	1.234496e-09	2.566838e+01	7.932347e+01
2.720000e-06	3.655727e-06	1.247438e-09	2.591094e+01	7.989334e+01
2.730000e-06	3.689471e-06	1.258010e-09	2.615011e+01	8.044118e+01
2.740000e-06	3.722680e-06	1.263957e-09	2.638549e+01	8.096740e+01
2.750000e-06	3.755523e-06	1.268388e-09	2.661827e+01	8.147234e+01
2.760000e-06	3.788052e-06	1.274228e-09	2.684883e+01	8.195638e+01
2.770000e-06	3.820355e-06	1.279679e-09	2.707779e+01	8.241983e+01
2.780000e-06	3.852462e-06	1.283768e-09	2.730535e+01	8.286300e+01
2.790000e-06	3.884351e-06	1.289127e-09	2.753137e+01	8.328619e+01
2.800000e-06	3.916072e-06	1.296138e-09	2.775621e+01	8.368967e+01
2.810000e-06	3.947589e-06	1.298498e-09	2.797959e+01	8.407372e+01
2.820000e-06	3.978842e-06	1.296469e-09	2.820111e+01	8.443860e+01
2.830000e-06	4.009837e-06	1.297322e-09	2.842079e+01	8.478460e+01
2.840000e-06	4.040599e-06	1.303650e-09	2.863883e+01	8.511197e+01
2.850000e-06	4.071058e-06	1.312057e-09	2.885471e+01	8.542101e+01
2.860000e-06	4.101123e-06	1.317526e-09	2.906781e+01	8.571201e+01
2.870000e-06	4.130921e-06	1.320105e-09	2.927901e+01	8.598529e+01
2.880000e-06	4.160507e-06	1.324426e-09	2.948871e+01	8.624117e+01
2.890000e-06	4.189827e-06	1.327139e-09	2.969652e+01	8.648003e+01
2.900000e-06	4.218952e-06	1.324419e-09	2.990295e+01	8.670224e+01
