# Temperatura_=_7.49
# Concentracion g/m^3_=_4090.0
# C_Vs_to_Am_M_A/Vsm_=_65563218390.804596
# pendiente_HvsI_1/m_=_3716.3
# ordenada_HvsI_A/m_=_1297.0
# frecuencia_Hz_=_135085.8546154989

Tiempo_(s)	Campo_(V.s)	Magnetizacion_(V.s)	Campo_(kA/m)	Magnetizacion_(A/m)
0.000000e+00	-5.402205e-06	-1.339846e-09	-3.839145e+01	-8.757861e+01
1.000000e-08	-5.402212e-06	-1.335949e-09	-3.839149e+01	-8.744158e+01
2.000000e-08	-5.402112e-06	-1.332110e-09	-3.839078e+01	-8.730682e+01
3.000000e-08	-5.401728e-06	-1.327430e-09	-3.838806e+01	-8.717479e+01
4.000000e-08	-5.400835e-06	-1.325089e-09	-3.838171e+01	-8.704595e+01
5.000000e-08	-5.399398e-06	-1.326969e-09	-3.837150e+01	-8.692071e+01
6.000000e-08	-5.397303e-06	-1.335728e-09	-3.835661e+01	-8.679946e+01
7.000000e-08	-5.394546e-06	-1.341628e-09	-3.833702e+01	-8.668255e+01
8.000000e-08	-5.391269e-06	-1.303153e-09	-3.831373e+01	-8.657031e+01
9.000000e-08	-5.387526e-06	-1.272782e-09	-3.828713e+01	-8.646300e+01
1.000000e-07	-5.383518e-06	-1.363190e-09	-3.825864e+01	-8.636085e+01
1.100000e-07	-5.379204e-06	-1.407869e-09	-3.822798e+01	-8.626405e+01
1.200000e-07	-5.374622e-06	-1.310941e-09	-3.819542e+01	-8.617272e+01
1.300000e-07	-5.369915e-06	-1.225239e-09	-3.816197e+01	-8.608695e+01
1.400000e-07	-5.364824e-06	-1.343471e-09	-3.812579e+01	-8.600677e+01
1.500000e-07	-5.359177e-06	-1.441554e-09	-3.808566e+01	-8.593214e+01
1.600000e-07	-5.353142e-06	-1.287151e-09	-3.804277e+01	-8.586298e+01
1.700000e-07	-5.346857e-06	-1.166468e-09	-3.799811e+01	-8.579917e+01
1.800000e-07	-5.340183e-06	-1.297878e-09	-3.795068e+01	-8.574051e+01
1.900000e-07	-5.332947e-06	-1.407566e-09	-3.789925e+01	-8.568676e+01
2.000000e-07	-5.325410e-06	-1.292145e-09	-3.784569e+01	-8.563763e+01
2.100000e-07	-5.317765e-06	-1.225344e-09	-3.779136e+01	-8.559279e+01
2.200000e-07	-5.309850e-06	-1.326363e-09	-3.773511e+01	-8.555185e+01
2.300000e-07	-5.301633e-06	-1.348413e-09	-3.767672e+01	-8.551439e+01
2.400000e-07	-5.293083e-06	-1.253704e-09	-3.761596e+01	-8.547994e+01
2.500000e-07	-5.284148e-06	-1.290082e-09	-3.755246e+01	-8.544801e+01
2.600000e-07	-5.274570e-06	-1.374915e-09	-3.748439e+01	-8.541807e+01
2.700000e-07	-5.264111e-06	-1.324386e-09	-3.741006e+01	-8.538957e+01
2.800000e-07	-5.253077e-06	-1.254174e-09	-3.733165e+01	-8.536193e+01
2.900000e-07	-5.241724e-06	-1.328329e-09	-3.725097e+01	-8.533456e+01
3.000000e-07	-5.229994e-06	-1.342797e-09	-3.716760e+01	-8.530687e+01
3.100000e-07	-5.217853e-06	-1.233218e-09	-3.708133e+01	-8.527826e+01
3.200000e-07	-5.205318e-06	-1.248818e-09	-3.699224e+01	-8.524811e+01
3.300000e-07	-5.192383e-06	-1.359761e-09	-3.690032e+01	-8.521583e+01
3.400000e-07	-5.179004e-06	-1.325865e-09	-3.680524e+01	-8.518084e+01
3.500000e-07	-5.165287e-06	-1.269744e-09	-3.670776e+01	-8.514256e+01
3.600000e-07	-5.151275e-06	-1.326673e-09	-3.660818e+01	-8.510045e+01
3.700000e-07	-5.136827e-06	-1.337760e-09	-3.650551e+01	-8.505397e+01
3.800000e-07	-5.121706e-06	-1.256330e-09	-3.639804e+01	-8.500264e+01
3.900000e-07	-5.105955e-06	-1.267976e-09	-3.628611e+01	-8.494600e+01
4.000000e-07	-5.089701e-06	-1.303162e-09	-3.617060e+01	-8.488363e+01
4.100000e-07	-5.073072e-06	-1.269800e-09	-3.605242e+01	-8.481514e+01
4.200000e-07	-5.056188e-06	-1.279510e-09	-3.593243e+01	-8.474020e+01
4.300000e-07	-5.038953e-06	-1.332627e-09	-3.580995e+01	-8.465853e+01
4.400000e-07	-5.021393e-06	-1.310323e-09	-3.568516e+01	-8.456988e+01
4.500000e-07	-5.003530e-06	-1.270387e-09	-3.555821e+01	-8.447408e+01
4.600000e-07	-4.985382e-06	-1.294226e-09	-3.542924e+01	-8.437097e+01
4.700000e-07	-4.966857e-06	-1.290027e-09	-3.529759e+01	-8.426048e+01
4.800000e-07	-4.947913e-06	-1.254360e-09	-3.516296e+01	-8.414258e+01
4.900000e-07	-4.928683e-06	-1.250422e-09	-3.502631e+01	-8.401729e+01
5.000000e-07	-4.909180e-06	-1.267287e-09	-3.488770e+01	-8.388467e+01
5.100000e-07	-4.889361e-06	-1.269153e-09	-3.474685e+01	-8.374485e+01
5.200000e-07	-4.869359e-06	-1.280814e-09	-3.460471e+01	-8.359800e+01
5.300000e-07	-4.849112e-06	-1.269827e-09	-3.446082e+01	-8.344432e+01
5.400000e-07	-4.828512e-06	-1.257258e-09	-3.431442e+01	-8.328407e+01
5.500000e-07	-4.807643e-06	-1.265778e-09	-3.416611e+01	-8.311754e+01
5.600000e-07	-4.786395e-06	-1.267211e-09	-3.401511e+01	-8.294506e+01
5.700000e-07	-4.764767e-06	-1.237274e-09	-3.386141e+01	-8.276698e+01
5.800000e-07	-4.742860e-06	-1.232479e-09	-3.370573e+01	-8.258371e+01
5.900000e-07	-4.720607e-06	-1.243500e-09	-3.354759e+01	-8.239563e+01
6.000000e-07	-4.697896e-06	-1.246350e-09	-3.338618e+01	-8.220318e+01
6.100000e-07	-4.674907e-06	-1.244774e-09	-3.322281e+01	-8.200681e+01
6.200000e-07	-4.651691e-06	-1.241699e-09	-3.305783e+01	-8.180695e+01
6.300000e-07	-4.628120e-06	-1.233888e-09	-3.289031e+01	-8.160407e+01
6.400000e-07	-4.604332e-06	-1.244738e-09	-3.272126e+01	-8.139862e+01
6.500000e-07	-4.580307e-06	-1.243277e-09	-3.255052e+01	-8.119104e+01
6.600000e-07	-4.556016e-06	-1.218849e-09	-3.237790e+01	-8.098179e+01
6.700000e-07	-4.531457e-06	-1.211075e-09	-3.220337e+01	-8.077128e+01
6.800000e-07	-4.506484e-06	-1.227021e-09	-3.202590e+01	-8.055993e+01
6.900000e-07	-4.480939e-06	-1.229688e-09	-3.184436e+01	-8.034813e+01
7.000000e-07	-4.454876e-06	-1.216976e-09	-3.165914e+01	-8.013623e+01
7.100000e-07	-4.428368e-06	-1.211161e-09	-3.147075e+01	-7.992458e+01
7.200000e-07	-4.401366e-06	-1.214340e-09	-3.127886e+01	-7.971348e+01
7.300000e-07	-4.374070e-06	-1.216679e-09	-3.108488e+01	-7.950320e+01
7.400000e-07	-4.346570e-06	-1.205168e-09	-3.088944e+01	-7.929399e+01
7.500000e-07	-4.318779e-06	-1.194057e-09	-3.069194e+01	-7.908605e+01
7.600000e-07	-4.290794e-06	-1.200815e-09	-3.049306e+01	-7.887953e+01
7.700000e-07	-4.262636e-06	-1.216521e-09	-3.029296e+01	-7.867458e+01
7.800000e-07	-4.234238e-06	-1.212330e-09	-3.009114e+01	-7.847128e+01
7.900000e-07	-4.205564e-06	-1.198690e-09	-2.988737e+01	-7.826967e+01
8.000000e-07	-4.176524e-06	-1.189380e-09	-2.968099e+01	-7.806978e+01
8.100000e-07	-4.147125e-06	-1.188145e-09	-2.947206e+01	-7.787157e+01
8.200000e-07	-4.117385e-06	-1.182889e-09	-2.926071e+01	-7.767500e+01
8.300000e-07	-4.087385e-06	-1.177067e-09	-2.904752e+01	-7.747997e+01
8.400000e-07	-4.057169e-06	-1.175396e-09	-2.883278e+01	-7.728635e+01
8.500000e-07	-4.026723e-06	-1.188092e-09	-2.861641e+01	-7.709400e+01
8.600000e-07	-3.996038e-06	-1.195732e-09	-2.839834e+01	-7.690273e+01
8.700000e-07	-3.965037e-06	-1.187143e-09	-2.817803e+01	-7.671234e+01
8.800000e-07	-3.933770e-06	-1.170078e-09	-2.795583e+01	-7.652262e+01
8.900000e-07	-3.902252e-06	-1.164316e-09	-2.773184e+01	-7.633331e+01
9.000000e-07	-3.870581e-06	-1.161955e-09	-2.750677e+01	-7.614416e+01
9.100000e-07	-3.838805e-06	-1.157451e-09	-2.728095e+01	-7.595492e+01
9.200000e-07	-3.806807e-06	-1.153544e-09	-2.705355e+01	-7.576530e+01
9.300000e-07	-3.774536e-06	-1.158800e-09	-2.682421e+01	-7.557503e+01
9.400000e-07	-3.741975e-06	-1.168678e-09	-2.659281e+01	-7.538383e+01
9.500000e-07	-3.709105e-06	-1.166991e-09	-2.635922e+01	-7.519142e+01
9.600000e-07	-3.675759e-06	-1.152458e-09	-2.612224e+01	-7.499753e+01
9.700000e-07	-3.641875e-06	-1.137238e-09	-2.588144e+01	-7.480191e+01
9.800000e-07	-3.607577e-06	-1.129042e-09	-2.563770e+01	-7.460429e+01
9.900000e-07	-3.573018e-06	-1.127510e-09	-2.539210e+01	-7.440444e+01
1.000000e-06	-3.538176e-06	-1.126347e-09	-2.514449e+01	-7.420214e+01
1.010000e-06	-3.502938e-06	-1.129072e-09	-2.489407e+01	-7.399718e+01
1.020000e-06	-3.467450e-06	-1.135735e-09	-2.464187e+01	-7.378937e+01
1.030000e-06	-3.431814e-06	-1.135552e-09	-2.438862e+01	-7.357855e+01
1.040000e-06	-3.396035e-06	-1.124325e-09	-2.413435e+01	-7.336458e+01
1.050000e-06	-3.360105e-06	-1.106224e-09	-2.387901e+01	-7.314732e+01
1.060000e-06	-3.324013e-06	-1.094721e-09	-2.362251e+01	-7.292668e+01
1.070000e-06	-3.287743e-06	-1.090138e-09	-2.336475e+01	-7.270258e+01
1.080000e-06	-3.251261e-06	-1.089454e-09	-2.310549e+01	-7.247497e+01
1.090000e-06	-3.214560e-06	-1.090394e-09	-2.284467e+01	-7.224380e+01
1.100000e-06	-3.177572e-06	-1.096628e-09	-2.258181e+01	-7.200907e+01
1.110000e-06	-3.140298e-06	-1.099428e-09	-2.231692e+01	-7.177077e+01
1.120000e-06	-3.102830e-06	-1.091738e-09	-2.205065e+01	-7.152894e+01
1.130000e-06	-3.065132e-06	-1.075115e-09	-2.178274e+01	-7.128361e+01
1.140000e-06	-3.027265e-06	-1.060888e-09	-2.151364e+01	-7.103483e+01
1.150000e-06	-2.989233e-06	-1.054132e-09	-2.124336e+01	-7.078267e+01
1.160000e-06	-2.950997e-06	-1.054973e-09	-2.097163e+01	-7.052721e+01
1.170000e-06	-2.912492e-06	-1.058286e-09	-2.069799e+01	-7.026853e+01
1.180000e-06	-2.873831e-06	-1.061004e-09	-2.042324e+01	-7.000672e+01
1.190000e-06	-2.835083e-06	-1.058612e-09	-2.014787e+01	-6.974188e+01
1.200000e-06	-2.796067e-06	-1.053358e-09	-1.987060e+01	-6.947410e+01
1.210000e-06	-2.756907e-06	-1.045371e-09	-1.959230e+01	-6.920347e+01
1.220000e-06	-2.717681e-06	-1.039929e-09	-1.931354e+01	-6.893008e+01
1.230000e-06	-2.678248e-06	-1.037628e-09	-1.903330e+01	-6.865402e+01
1.240000e-06	-2.638532e-06	-1.035452e-09	-1.875106e+01	-6.837537e+01
1.250000e-06	-2.598675e-06	-1.034742e-09	-1.846781e+01	-6.809418e+01
1.260000e-06	-2.558707e-06	-1.033173e-09	-1.818377e+01	-6.781051e+01
1.270000e-06	-2.518617e-06	-1.026418e-09	-1.789887e+01	-6.752441e+01
1.280000e-06	-2.478453e-06	-1.019992e-09	-1.761344e+01	-6.723589e+01
1.290000e-06	-2.438124e-06	-1.014903e-09	-1.732683e+01	-6.694498e+01
1.300000e-06	-2.397562e-06	-1.008567e-09	-1.703857e+01	-6.665165e+01
1.310000e-06	-2.356821e-06	-1.000497e-09	-1.674904e+01	-6.635589e+01
1.320000e-06	-2.315890e-06	-9.958000e-10	-1.645816e+01	-6.605765e+01
1.330000e-06	-2.274727e-06	-9.951966e-10	-1.616563e+01	-6.575687e+01
1.340000e-06	-2.233315e-06	-9.938304e-10	-1.587133e+01	-6.545346e+01
1.350000e-06	-2.191654e-06	-9.899105e-10	-1.557526e+01	-6.514733e+01
1.360000e-06	-2.149616e-06	-9.834190e-10	-1.527652e+01	-6.483835e+01
1.370000e-06	-2.107203e-06	-9.763474e-10	-1.497510e+01	-6.452639e+01
1.380000e-06	-2.064612e-06	-9.712528e-10	-1.467242e+01	-6.421129e+01
1.390000e-06	-2.021838e-06	-9.671552e-10	-1.436844e+01	-6.389289e+01
1.400000e-06	-1.978767e-06	-9.613338e-10	-1.406236e+01	-6.357099e+01
1.410000e-06	-1.935522e-06	-9.579243e-10	-1.375503e+01	-6.324540e+01
1.420000e-06	-1.892307e-06	-9.565024e-10	-1.344792e+01	-6.291590e+01
1.430000e-06	-1.848979e-06	-9.552197e-10	-1.314000e+01	-6.258227e+01
1.440000e-06	-1.805457e-06	-9.507341e-10	-1.283070e+01	-6.224426e+01
1.450000e-06	-1.761844e-06	-9.431607e-10	-1.252077e+01	-6.190163e+01
1.460000e-06	-1.718144e-06	-9.371987e-10	-1.221020e+01	-6.155413e+01
1.470000e-06	-1.674343e-06	-9.353693e-10	-1.189893e+01	-6.120150e+01
1.480000e-06	-1.630433e-06	-9.305153e-10	-1.158688e+01	-6.084346e+01
1.490000e-06	-1.586407e-06	-9.249296e-10	-1.127400e+01	-6.047975e+01
1.500000e-06	-1.542279e-06	-9.210421e-10	-1.096040e+01	-6.011009e+01
1.510000e-06	-1.498073e-06	-9.190777e-10	-1.064624e+01	-5.973420e+01
1.520000e-06	-1.453800e-06	-9.124418e-10	-1.033161e+01	-5.935180e+01
1.530000e-06	-1.409537e-06	-9.015616e-10	-1.001705e+01	-5.896260e+01
1.540000e-06	-1.365222e-06	-8.918910e-10	-9.702118e+00	-5.856631e+01
1.550000e-06	-1.320834e-06	-8.864631e-10	-9.386675e+00	-5.816265e+01
1.560000e-06	-1.276399e-06	-8.820160e-10	-9.070890e+00	-5.775132e+01
1.570000e-06	-1.231786e-06	-8.772107e-10	-8.753840e+00	-5.733203e+01
1.580000e-06	-1.187047e-06	-8.716945e-10	-8.435897e+00	-5.690449e+01
1.590000e-06	-1.142306e-06	-8.661626e-10	-8.117944e+00	-5.646838e+01
1.600000e-06	-1.097543e-06	-8.600363e-10	-7.799827e+00	-5.602339e+01
1.610000e-06	-1.052702e-06	-8.502489e-10	-7.481159e+00	-5.556923e+01
1.620000e-06	-1.007735e-06	-8.396751e-10	-7.161593e+00	-5.510555e+01
1.630000e-06	-9.626171e-07	-8.306180e-10	-6.840959e+00	-5.463203e+01
1.640000e-06	-9.174430e-07	-8.222894e-10	-6.519924e+00	-5.414832e+01
1.650000e-06	-8.721978e-07	-8.148466e-10	-6.198383e+00	-5.365406e+01
1.660000e-06	-8.269488e-07	-8.071899e-10	-5.876815e+00	-5.314889e+01
1.670000e-06	-7.816801e-07	-8.012072e-10	-5.555107e+00	-5.263241e+01
1.680000e-06	-7.363273e-07	-7.960685e-10	-5.232802e+00	-5.210421e+01
1.690000e-06	-6.909671e-07	-7.873625e-10	-4.910444e+00	-5.156386e+01
1.700000e-06	-6.455240e-07	-7.769957e-10	-4.587497e+00	-5.101092e+01
1.710000e-06	-5.999150e-07	-7.681703e-10	-4.263371e+00	-5.044490e+01
1.720000e-06	-5.543149e-07	-7.626336e-10	-3.939308e+00	-4.986532e+01
1.730000e-06	-5.087310e-07	-7.562961e-10	-3.615360e+00	-4.927164e+01
1.740000e-06	-4.630927e-07	-7.479855e-10	-3.291026e+00	-4.866331e+01
1.750000e-06	-4.173889e-07	-7.375013e-10	-2.966226e+00	-4.803974e+01
1.760000e-06	-3.715932e-07	-7.255285e-10	-2.640774e+00	-4.740034e+01
1.770000e-06	-3.258245e-07	-7.102838e-10	-2.315513e+00	-4.674447e+01
1.780000e-06	-2.801332e-07	-6.971755e-10	-1.990801e+00	-4.607145e+01
1.790000e-06	-2.344015e-07	-6.892810e-10	-1.665804e+00	-4.538059e+01
1.800000e-06	-1.885926e-07	-6.822268e-10	-1.340257e+00	-4.467119e+01
1.810000e-06	-1.428514e-07	-6.703729e-10	-1.015191e+00	-4.394249e+01
1.820000e-06	-9.710285e-08	-6.569306e-10	-6.900736e-01	-4.319373e+01
1.830000e-06	-5.132507e-08	-6.448956e-10	-3.647480e-01	-4.242413e+01
1.840000e-06	-5.561631e-09	-6.333935e-10	-3.952443e-02	-4.163288e+01
1.850000e-06	4.027332e-08	-6.204164e-10	2.862074e-01	-4.081917e+01
1.860000e-06	8.614098e-08	-6.057131e-10	6.121716e-01	-3.998218e+01
1.870000e-06	1.319392e-07	-5.919225e-10	9.376427e-01	-3.912108e+01
1.880000e-06	1.777349e-07	-5.818039e-10	1.263095e+00	-3.823503e+01
1.890000e-06	2.235000e-07	-5.713462e-10	1.588330e+00	-3.732322e+01
1.900000e-06	2.692310e-07	-5.540432e-10	1.913323e+00	-3.638482e+01
1.910000e-06	3.149894e-07	-5.338515e-10	2.238512e+00	-3.541904e+01
1.920000e-06	3.606806e-07	-5.155609e-10	2.563221e+00	-3.442510e+01
1.930000e-06	4.063944e-07	-4.982286e-10	2.888092e+00	-3.340225e+01
1.940000e-06	4.521227e-07	-4.780835e-10	3.213067e+00	-3.234978e+01
1.950000e-06	4.977328e-07	-4.599162e-10	3.537200e+00	-3.126701e+01
1.960000e-06	5.432781e-07	-4.462469e-10	3.860874e+00	-3.015332e+01
1.970000e-06	5.888179e-07	-4.333738e-10	4.184508e+00	-2.900814e+01
1.980000e-06	6.343364e-07	-4.164134e-10	4.507991e+00	-2.783096e+01
1.990000e-06	6.798633e-07	-3.932711e-10	4.831533e+00	-2.662134e+01
2.000000e-06	7.253925e-07	-3.692315e-10	5.155092e+00	-2.537893e+01
2.010000e-06	7.708567e-07	-3.495985e-10	5.478190e+00	-2.410342e+01
2.020000e-06	8.161889e-07	-3.310695e-10	5.800349e+00	-2.279464e+01
2.030000e-06	8.614017e-07	-3.105801e-10	6.121659e+00	-2.145247e+01
2.040000e-06	9.065953e-07	-2.898440e-10	6.442833e+00	-2.007690e+01
2.050000e-06	9.517732e-07	-2.710716e-10	6.763895e+00	-1.866804e+01
2.060000e-06	9.968521e-07	-2.516771e-10	7.084254e+00	-1.722609e+01
2.070000e-06	1.041839e-06	-2.268091e-10	7.403958e+00	-1.575137e+01
2.080000e-06	1.086738e-06	-1.991039e-10	7.723036e+00	-1.424429e+01
2.090000e-06	1.131498e-06	-1.747203e-10	8.041132e+00	-1.270542e+01
2.100000e-06	1.176113e-06	-1.531948e-10	8.358197e+00	-1.113540e+01
2.110000e-06	1.220621e-06	-1.289467e-10	8.674496e+00	-9.535020e+00
2.120000e-06	1.265033e-06	-1.038108e-10	8.990117e+00	-7.905184e+00
2.130000e-06	1.309349e-06	-8.227926e-11	9.305055e+00	-6.246909e+00
2.140000e-06	1.353653e-06	-6.212057e-11	9.619901e+00	-4.561331e+00
2.150000e-06	1.397911e-06	-3.720035e-11	9.934432e+00	-2.849703e+00
2.160000e-06	1.442120e-06	-8.676906e-12	1.024861e+01	-1.113390e+00
2.170000e-06	1.486264e-06	1.803594e-11	1.056232e+01	6.461350e-01
2.180000e-06	1.530312e-06	4.097537e-11	1.087535e+01	2.427294e+00
2.190000e-06	1.574261e-06	6.501445e-11	1.118769e+01	4.228408e+00
2.200000e-06	1.618128e-06	9.272054e-11	1.149943e+01	6.047708e+00
2.210000e-06	1.661971e-06	1.200557e-10	1.181100e+01	7.883334e+00
2.220000e-06	1.705732e-06	1.458151e-10	1.212200e+01	9.733349e+00
2.230000e-06	1.749437e-06	1.739881e-10	1.243259e+01	1.159574e+01
2.240000e-06	1.793094e-06	2.079178e-10	1.274285e+01	1.346844e+01
2.250000e-06	1.836665e-06	2.407181e-10	1.305249e+01	1.534931e+01
2.260000e-06	1.880148e-06	2.683747e-10	1.336150e+01	1.723617e+01
2.270000e-06	1.923486e-06	2.949321e-10	1.366949e+01	1.912683e+01
2.280000e-06	1.966665e-06	3.254318e-10	1.397635e+01	2.101902e+01
2.290000e-06	2.009671e-06	3.575791e-10	1.428198e+01	2.291050e+01
2.300000e-06	2.052492e-06	3.870397e-10	1.458629e+01	2.479901e+01
2.310000e-06	2.095051e-06	4.147396e-10	1.488874e+01	2.668227e+01
2.320000e-06	2.137357e-06	4.434331e-10	1.518939e+01	2.855805e+01
2.330000e-06	2.179416e-06	4.714139e-10	1.548829e+01	3.042411e+01
2.340000e-06	2.221136e-06	4.944269e-10	1.578478e+01	3.227826e+01
2.350000e-06	2.262579e-06	5.179634e-10	1.607930e+01	3.411835e+01
2.360000e-06	2.303790e-06	5.470564e-10	1.637217e+01	3.594228e+01
2.370000e-06	2.344641e-06	5.791131e-10	1.666248e+01	3.774802e+01
2.380000e-06	2.385159e-06	6.106788e-10	1.695043e+01	3.953358e+01
2.390000e-06	2.425495e-06	6.400390e-10	1.723708e+01	4.129708e+01
2.400000e-06	2.465720e-06	6.676241e-10	1.752295e+01	4.303670e+01
2.410000e-06	2.505856e-06	6.925594e-10	1.780818e+01	4.475072e+01
2.420000e-06	2.545844e-06	7.150444e-10	1.809236e+01	4.643752e+01
2.430000e-06	2.585731e-06	7.386502e-10	1.837582e+01	4.809558e+01
2.440000e-06	2.625578e-06	7.655982e-10	1.865900e+01	4.972347e+01
2.450000e-06	2.665261e-06	7.944969e-10	1.894101e+01	5.131990e+01
2.460000e-06	2.704812e-06	8.235532e-10	1.922208e+01	5.288366e+01
2.470000e-06	2.744274e-06	8.487348e-10	1.950253e+01	5.441369e+01
2.480000e-06	2.783554e-06	8.697339e-10	1.978168e+01	5.590902e+01
2.490000e-06	2.822664e-06	8.908605e-10	2.005961e+01	5.736881e+01
2.500000e-06	2.861545e-06	9.114791e-10	2.033593e+01	5.879234e+01
2.510000e-06	2.900169e-06	9.328503e-10	2.061041e+01	6.017900e+01
2.520000e-06	2.938510e-06	9.571343e-10	2.088289e+01	6.152830e+01
2.530000e-06	2.976627e-06	9.841324e-10	2.115377e+01	6.283987e+01
2.540000e-06	3.014618e-06	1.006659e-09	2.142376e+01	6.411345e+01
2.550000e-06	3.052428e-06	1.019774e-09	2.169246e+01	6.534888e+01
2.560000e-06	3.090098e-06	1.029797e-09	2.196017e+01	6.654610e+01
2.570000e-06	3.127582e-06	1.041503e-09	2.222655e+01	6.770517e+01
2.580000e-06	3.164749e-06	1.057068e-09	2.249068e+01	6.882623e+01
2.590000e-06	3.201725e-06	1.076837e-09	2.275346e+01	6.990951e+01
2.600000e-06	3.238535e-06	1.102013e-09	2.301506e+01	7.095534e+01
2.610000e-06	3.275095e-06	1.129438e-09	2.327487e+01	7.196410e+01
2.620000e-06	3.311351e-06	1.150503e-09	2.353253e+01	7.293628e+01
2.630000e-06	3.347347e-06	1.160188e-09	2.378834e+01	7.387239e+01
2.640000e-06	3.383230e-06	1.161938e-09	2.404335e+01	7.477305e+01
2.650000e-06	3.418997e-06	1.164506e-09	2.429753e+01	7.563889e+01
2.660000e-06	3.454663e-06	1.171536e-09	2.455099e+01	7.647061e+01
2.670000e-06	3.490218e-06	1.182791e-09	2.480367e+01	7.726894e+01
2.680000e-06	3.525503e-06	1.198157e-09	2.505443e+01	7.803467e+01
2.690000e-06	3.560557e-06	1.217408e-09	2.530354e+01	7.876858e+01
2.700000e-06	3.595261e-06	1.237249e-09	2.555017e+01	7.947149e+01
2.710000e-06	3.629397e-06	1.250740e-09	2.579276e+01	8.014426e+01
2.720000e-06	3.663198e-06	1.254582e-09	2.603298e+01	8.078771e+01
2.730000e-06	3.696693e-06	1.253985e-09	2.627101e+01	8.140273e+01
2.740000e-06	3.729762e-06	1.258239e-09	2.650602e+01	8.199015e+01
2.750000e-06	3.762352e-06	1.267883e-09	2.673762e+01	8.255085e+01
2.760000e-06	3.794594e-06	1.276836e-09	2.696676e+01	8.308567e+01
2.770000e-06	3.826662e-06	1.285679e-09	2.719465e+01	8.359546e+01
2.780000e-06	3.858552e-06	1.299158e-09	2.742128e+01	8.408106e+01
2.790000e-06	3.890285e-06	1.312434e-09	2.764680e+01	8.454328e+01
2.800000e-06	3.921794e-06	1.316223e-09	2.787072e+01	8.498292e+01
2.810000e-06	3.953124e-06	1.311932e-09	2.809337e+01	8.540077e+01
2.820000e-06	3.984204e-06	1.309354e-09	2.831425e+01	8.579759e+01
2.830000e-06	4.014973e-06	1.313254e-09	2.853291e+01	8.617414e+01
2.840000e-06	4.045450e-06	1.319129e-09	2.874950e+01	8.653114e+01
2.850000e-06	4.075633e-06	1.324020e-09	2.896399e+01	8.686928e+01
2.860000e-06	4.105532e-06	1.329623e-09	2.917648e+01	8.718927e+01
2.870000e-06	4.135206e-06	1.335790e-09	2.938736e+01	8.749175e+01
2.880000e-06	4.164690e-06	1.339050e-09	2.959689e+01	8.777738e+01
2.890000e-06	4.193940e-06	1.336942e-09	2.980476e+01	8.804678e+01
2.900000e-06	4.222833e-06	1.335624e-09	3.001009e+01	8.830056e+01
