# Temperatura_=_12.25
# Concentracion g/m^3_=_4090.0
# C_Vs_to_Am_M_A/Vsm_=_65563218390.804596
# pendiente_HvsI_1/m_=_3716.3
# ordenada_HvsI_A/m_=_1297.0
# frecuencia_Hz_=_135088.18333885103

Tiempo_(s)	Campo_(V.s)	Magnetizacion_(V.s)	Campo_(kA/m)	Magnetizacion_(A/m)
0.000000e+00	-5.411766e-06	-1.336670e-09	-3.838278e+01	-8.761466e+01
1.000000e-08	-5.412038e-06	-1.332332e-09	-3.838471e+01	-8.748510e+01
2.000000e-08	-5.412121e-06	-1.330389e-09	-3.838530e+01	-8.736288e+01
3.000000e-08	-5.411920e-06	-1.326655e-09	-3.838387e+01	-8.724873e+01
4.000000e-08	-5.411242e-06	-1.323426e-09	-3.837906e+01	-8.714327e+01
5.000000e-08	-5.410012e-06	-1.327266e-09	-3.837033e+01	-8.704707e+01
6.000000e-08	-5.408264e-06	-1.339067e-09	-3.835794e+01	-8.696064e+01
7.000000e-08	-5.405926e-06	-1.349748e-09	-3.834136e+01	-8.688436e+01
8.000000e-08	-5.403029e-06	-1.355864e-09	-3.832081e+01	-8.681856e+01
9.000000e-08	-5.399723e-06	-1.321207e-09	-3.829736e+01	-8.676346e+01
1.000000e-07	-5.395889e-06	-1.269847e-09	-3.827017e+01	-8.671919e+01
1.100000e-07	-5.391675e-06	-1.256889e-09	-3.824028e+01	-8.668576e+01
1.200000e-07	-5.387374e-06	-1.348744e-09	-3.820978e+01	-8.666311e+01
1.300000e-07	-5.382793e-06	-1.341703e-09	-3.817729e+01	-8.665105e+01
1.400000e-07	-5.377720e-06	-1.310301e-09	-3.814130e+01	-8.664929e+01
1.500000e-07	-5.372219e-06	-1.269606e-09	-3.810229e+01	-8.665747e+01
1.600000e-07	-5.366491e-06	-1.389234e-09	-3.806167e+01	-8.667508e+01
1.700000e-07	-5.360438e-06	-1.381749e-09	-3.801873e+01	-8.670156e+01
1.800000e-07	-5.353714e-06	-1.276253e-09	-3.797105e+01	-8.673625e+01
1.900000e-07	-5.346537e-06	-1.222465e-09	-3.792014e+01	-8.677838e+01
2.000000e-07	-5.339230e-06	-1.321260e-09	-3.786832e+01	-8.682713e+01
2.100000e-07	-5.331692e-06	-1.378011e-09	-3.781485e+01	-8.688159e+01
2.200000e-07	-5.323925e-06	-1.320251e-09	-3.775977e+01	-8.694079e+01
2.300000e-07	-5.315858e-06	-1.357814e-09	-3.770255e+01	-8.700371e+01
2.400000e-07	-5.307509e-06	-1.410926e-09	-3.764334e+01	-8.706928e+01
2.500000e-07	-5.298643e-06	-1.412578e-09	-3.758046e+01	-8.713639e+01
2.600000e-07	-5.289063e-06	-1.339109e-09	-3.751251e+01	-8.720389e+01
2.700000e-07	-5.278864e-06	-1.390475e-09	-3.744017e+01	-8.727065e+01
2.800000e-07	-5.268114e-06	-1.383144e-09	-3.736393e+01	-8.733548e+01
2.900000e-07	-5.256976e-06	-1.339201e-09	-3.728494e+01	-8.739723e+01
3.000000e-07	-5.245385e-06	-1.314827e-09	-3.720273e+01	-8.745475e+01
3.100000e-07	-5.233455e-06	-1.404826e-09	-3.711811e+01	-8.750693e+01
3.200000e-07	-5.221156e-06	-1.385584e-09	-3.703088e+01	-8.755267e+01
3.300000e-07	-5.208433e-06	-1.336119e-09	-3.694065e+01	-8.759092e+01
3.400000e-07	-5.195304e-06	-1.327713e-09	-3.684753e+01	-8.762069e+01
3.500000e-07	-5.181747e-06	-1.393946e-09	-3.675138e+01	-8.764105e+01
3.600000e-07	-5.167792e-06	-1.370815e-09	-3.665240e+01	-8.765113e+01
3.700000e-07	-5.153526e-06	-1.358506e-09	-3.655122e+01	-8.765014e+01
3.800000e-07	-5.138830e-06	-1.338130e-09	-3.644699e+01	-8.763739e+01
3.900000e-07	-5.123582e-06	-1.341594e-09	-3.633884e+01	-8.761225e+01
4.000000e-07	-5.107730e-06	-1.336208e-09	-3.622641e+01	-8.757420e+01
4.100000e-07	-5.091350e-06	-1.352636e-09	-3.611024e+01	-8.752282e+01
4.200000e-07	-5.074487e-06	-1.323309e-09	-3.599064e+01	-8.745779e+01
4.300000e-07	-5.057221e-06	-1.307987e-09	-3.586818e+01	-8.737888e+01
4.400000e-07	-5.039812e-06	-1.350232e-09	-3.574470e+01	-8.728598e+01
4.500000e-07	-5.022141e-06	-1.368657e-09	-3.561937e+01	-8.717907e+01
4.600000e-07	-5.004044e-06	-1.329203e-09	-3.549102e+01	-8.705824e+01
4.700000e-07	-4.985622e-06	-1.297099e-09	-3.536037e+01	-8.692367e+01
4.800000e-07	-4.966872e-06	-1.320566e-09	-3.522738e+01	-8.677564e+01
4.900000e-07	-4.947746e-06	-1.315454e-09	-3.509173e+01	-8.661454e+01
5.000000e-07	-4.928285e-06	-1.304823e-09	-3.495370e+01	-8.644083e+01
5.100000e-07	-4.908511e-06	-1.285231e-09	-3.481346e+01	-8.625504e+01
5.200000e-07	-4.888549e-06	-1.303338e-09	-3.467188e+01	-8.605781e+01
5.300000e-07	-4.868359e-06	-1.317080e-09	-3.452868e+01	-8.584981e+01
5.400000e-07	-4.847839e-06	-1.334913e-09	-3.438314e+01	-8.563180e+01
5.500000e-07	-4.826973e-06	-1.294511e-09	-3.423515e+01	-8.540457e+01
5.600000e-07	-4.805790e-06	-1.283536e-09	-3.408492e+01	-8.516897e+01
5.700000e-07	-4.784288e-06	-1.292567e-09	-3.393241e+01	-8.492587e+01
5.800000e-07	-4.762487e-06	-1.304053e-09	-3.377779e+01	-8.467618e+01
5.900000e-07	-4.740370e-06	-1.265077e-09	-3.362092e+01	-8.442082e+01
6.000000e-07	-4.717929e-06	-1.259712e-09	-3.346176e+01	-8.416069e+01
6.100000e-07	-4.695144e-06	-1.268798e-09	-3.330016e+01	-8.389673e+01
6.200000e-07	-4.671987e-06	-1.288501e-09	-3.313592e+01	-8.362985e+01
6.300000e-07	-4.648486e-06	-1.274658e-09	-3.296924e+01	-8.336091e+01
6.400000e-07	-4.624716e-06	-1.264403e-09	-3.280065e+01	-8.309079e+01
6.500000e-07	-4.600780e-06	-1.255561e-09	-3.263088e+01	-8.282030e+01
6.600000e-07	-4.576691e-06	-1.271151e-09	-3.246003e+01	-8.255021e+01
6.700000e-07	-4.552294e-06	-1.264375e-09	-3.228700e+01	-8.228124e+01
6.800000e-07	-4.527453e-06	-1.243308e-09	-3.211082e+01	-8.201406e+01
6.900000e-07	-4.502103e-06	-1.227513e-09	-3.193102e+01	-8.174926e+01
7.000000e-07	-4.476332e-06	-1.240370e-09	-3.174825e+01	-8.148737e+01
7.100000e-07	-4.450101e-06	-1.246156e-09	-3.156220e+01	-8.122885e+01
7.200000e-07	-4.423531e-06	-1.232447e-09	-3.137375e+01	-8.097409e+01
7.300000e-07	-4.396662e-06	-1.222831e-09	-3.118319e+01	-8.072338e+01
7.400000e-07	-4.369247e-06	-1.227363e-09	-3.098875e+01	-8.047696e+01
7.500000e-07	-4.341453e-06	-1.233359e-09	-3.079161e+01	-8.023498e+01
7.600000e-07	-4.313477e-06	-1.217821e-09	-3.059320e+01	-7.999751e+01
7.700000e-07	-4.285329e-06	-1.202888e-09	-3.039356e+01	-7.976454e+01
7.800000e-07	-4.257014e-06	-1.199949e-09	-3.019273e+01	-7.953600e+01
7.900000e-07	-4.228413e-06	-1.209459e-09	-2.998988e+01	-7.931174e+01
8.000000e-07	-4.199457e-06	-1.204509e-09	-2.978451e+01	-7.909153e+01
8.100000e-07	-4.170177e-06	-1.197948e-09	-2.957685e+01	-7.887510e+01
8.200000e-07	-4.140615e-06	-1.190179e-09	-2.936718e+01	-7.866212e+01
8.300000e-07	-4.110856e-06	-1.196345e-09	-2.915611e+01	-7.845219e+01
8.400000e-07	-4.080791e-06	-1.187467e-09	-2.894288e+01	-7.824488e+01
8.500000e-07	-4.050435e-06	-1.175877e-09	-2.872758e+01	-7.803972e+01
8.600000e-07	-4.019725e-06	-1.163077e-09	-2.850977e+01	-7.783620e+01
8.700000e-07	-3.988765e-06	-1.174897e-09	-2.829019e+01	-7.763380e+01
8.800000e-07	-3.957689e-06	-1.178697e-09	-2.806978e+01	-7.743195e+01
8.900000e-07	-3.926352e-06	-1.172800e-09	-2.784753e+01	-7.723011e+01
9.000000e-07	-3.894755e-06	-1.152146e-09	-2.762343e+01	-7.702771e+01
9.100000e-07	-3.862950e-06	-1.147610e-09	-2.739785e+01	-7.682420e+01
9.200000e-07	-3.831028e-06	-1.146827e-09	-2.717145e+01	-7.661901e+01
9.300000e-07	-3.798919e-06	-1.145845e-09	-2.694371e+01	-7.641163e+01
9.400000e-07	-3.766419e-06	-1.138372e-09	-2.671320e+01	-7.620154e+01
9.500000e-07	-3.733586e-06	-1.144014e-09	-2.648034e+01	-7.598826e+01
9.600000e-07	-3.700558e-06	-1.155329e-09	-2.624609e+01	-7.577135e+01
9.700000e-07	-3.667194e-06	-1.154604e-09	-2.600946e+01	-7.555039e+01
9.800000e-07	-3.633294e-06	-1.131562e-09	-2.576902e+01	-7.532503e+01
9.900000e-07	-3.598861e-06	-1.112354e-09	-2.552480e+01	-7.509495e+01
1.000000e-06	-3.564071e-06	-1.106827e-09	-2.527806e+01	-7.485987e+01
1.010000e-06	-3.528998e-06	-1.108802e-09	-2.502931e+01	-7.461959e+01
1.020000e-06	-3.493617e-06	-1.110120e-09	-2.477837e+01	-7.437393e+01
1.030000e-06	-3.457987e-06	-1.113133e-09	-2.452566e+01	-7.412278e+01
1.040000e-06	-3.422189e-06	-1.121450e-09	-2.427177e+01	-7.386609e+01
1.050000e-06	-3.386254e-06	-1.123915e-09	-2.401690e+01	-7.360385e+01
1.060000e-06	-3.350181e-06	-1.111599e-09	-2.376105e+01	-7.333609e+01
1.070000e-06	-3.313962e-06	-1.088655e-09	-2.350417e+01	-7.306292e+01
1.080000e-06	-3.277570e-06	-1.075731e-09	-2.324606e+01	-7.278447e+01
1.090000e-06	-3.240901e-06	-1.071700e-09	-2.298599e+01	-7.250092e+01
1.100000e-06	-3.203941e-06	-1.075177e-09	-2.272385e+01	-7.221250e+01
1.110000e-06	-3.166733e-06	-1.076092e-09	-2.245995e+01	-7.191944e+01
1.120000e-06	-3.129341e-06	-1.082098e-09	-2.219475e+01	-7.162204e+01
1.130000e-06	-3.091802e-06	-1.083978e-09	-2.192851e+01	-7.132061e+01
1.140000e-06	-3.053947e-06	-1.078717e-09	-2.166002e+01	-7.101547e+01
1.150000e-06	-3.015871e-06	-1.060716e-09	-2.138997e+01	-7.070695e+01
1.160000e-06	-2.977660e-06	-1.045625e-09	-2.111896e+01	-7.039541e+01
1.170000e-06	-2.939211e-06	-1.037965e-09	-2.084626e+01	-7.008119e+01
1.180000e-06	-2.900580e-06	-1.038657e-09	-2.057227e+01	-6.976464e+01
1.190000e-06	-2.861752e-06	-1.034696e-09	-2.029689e+01	-6.944610e+01
1.200000e-06	-2.822734e-06	-1.032478e-09	-2.002015e+01	-6.912589e+01
1.210000e-06	-2.783558e-06	-1.032597e-09	-1.974229e+01	-6.880431e+01
1.220000e-06	-2.744165e-06	-1.036466e-09	-1.946290e+01	-6.848164e+01
1.230000e-06	-2.704574e-06	-1.029060e-09	-1.918210e+01	-6.815813e+01
1.240000e-06	-2.664904e-06	-1.016175e-09	-1.890075e+01	-6.783399e+01
1.250000e-06	-2.625141e-06	-1.007060e-09	-1.861873e+01	-6.750940e+01
1.260000e-06	-2.585230e-06	-1.005923e-09	-1.833566e+01	-6.718450e+01
1.270000e-06	-2.545163e-06	-1.002615e-09	-1.805149e+01	-6.685939e+01
1.280000e-06	-2.505003e-06	-9.957720e-10	-1.776665e+01	-6.653412e+01
1.290000e-06	-2.464806e-06	-9.921327e-10	-1.748156e+01	-6.620869e+01
1.300000e-06	-2.424382e-06	-9.907865e-10	-1.719486e+01	-6.588306e+01
1.310000e-06	-2.383729e-06	-9.839182e-10	-1.690652e+01	-6.555715e+01
1.320000e-06	-2.342900e-06	-9.701170e-10	-1.661694e+01	-6.523083e+01
1.330000e-06	-2.301723e-06	-9.597215e-10	-1.632490e+01	-6.490390e+01
1.340000e-06	-2.260272e-06	-9.558006e-10	-1.603091e+01	-6.457615e+01
1.350000e-06	-2.218561e-06	-9.562080e-10	-1.573507e+01	-6.424730e+01
1.360000e-06	-2.176561e-06	-9.539523e-10	-1.543719e+01	-6.391706e+01
1.370000e-06	-2.134363e-06	-9.490825e-10	-1.513790e+01	-6.358508e+01
1.380000e-06	-2.091782e-06	-9.433928e-10	-1.483590e+01	-6.325097e+01
1.390000e-06	-2.048819e-06	-9.383070e-10	-1.453119e+01	-6.291434e+01
1.400000e-06	-2.005778e-06	-9.294145e-10	-1.422592e+01	-6.257475e+01
1.410000e-06	-1.962726e-06	-9.217970e-10	-1.392057e+01	-6.223173e+01
1.420000e-06	-1.919505e-06	-9.156018e-10	-1.361403e+01	-6.188482e+01
1.430000e-06	-1.876095e-06	-9.134526e-10	-1.330614e+01	-6.153353e+01
1.440000e-06	-1.832546e-06	-9.115342e-10	-1.299727e+01	-6.117736e+01
1.450000e-06	-1.788883e-06	-9.083111e-10	-1.268760e+01	-6.081581e+01
1.460000e-06	-1.745123e-06	-9.004177e-10	-1.237723e+01	-6.044837e+01
1.470000e-06	-1.701231e-06	-8.925193e-10	-1.206593e+01	-6.007455e+01
1.480000e-06	-1.657279e-06	-8.849752e-10	-1.175420e+01	-5.969386e+01
1.490000e-06	-1.613296e-06	-8.816523e-10	-1.144225e+01	-5.930580e+01
1.500000e-06	-1.569240e-06	-8.786568e-10	-1.112978e+01	-5.890993e+01
1.510000e-06	-1.525134e-06	-8.755272e-10	-1.081697e+01	-5.850578e+01
1.520000e-06	-1.480968e-06	-8.698558e-10	-1.050372e+01	-5.809292e+01
1.530000e-06	-1.436749e-06	-8.594573e-10	-1.019009e+01	-5.767095e+01
1.540000e-06	-1.392394e-06	-8.475073e-10	-9.875510e+00	-5.723947e+01
1.550000e-06	-1.347914e-06	-8.388852e-10	-9.560037e+00	-5.679813e+01
1.560000e-06	-1.303424e-06	-8.332628e-10	-9.244495e+00	-5.634658e+01
1.570000e-06	-1.258895e-06	-8.286187e-10	-8.928671e+00	-5.588451e+01
1.580000e-06	-1.214233e-06	-8.246579e-10	-8.611908e+00	-5.541162e+01
1.590000e-06	-1.169370e-06	-8.215129e-10	-8.293716e+00	-5.492765e+01
1.600000e-06	-1.124413e-06	-8.159437e-10	-7.974862e+00	-5.443234e+01
1.610000e-06	-1.079337e-06	-8.063303e-10	-7.655163e+00	-5.392545e+01
1.620000e-06	-1.034137e-06	-7.944002e-10	-7.334584e+00	-5.340678e+01
1.630000e-06	-9.888987e-07	-7.833297e-10	-7.013732e+00	-5.287611e+01
1.640000e-06	-9.436204e-07	-7.743520e-10	-6.692597e+00	-5.233326e+01
1.650000e-06	-8.983591e-07	-7.648991e-10	-6.371583e+00	-5.177802e+01
1.660000e-06	-8.530635e-07	-7.564393e-10	-6.050326e+00	-5.121021e+01
1.670000e-06	-8.076442e-07	-7.515245e-10	-5.728191e+00	-5.062965e+01
1.680000e-06	-7.621036e-07	-7.481533e-10	-5.405196e+00	-5.003613e+01
1.690000e-06	-7.165432e-07	-7.404027e-10	-5.082060e+00	-4.942944e+01
1.700000e-06	-6.710055e-07	-7.282322e-10	-4.759085e+00	-4.880937e+01
1.710000e-06	-6.253888e-07	-7.156961e-10	-4.435550e+00	-4.817566e+01
1.720000e-06	-5.797665e-07	-7.061951e-10	-4.111975e+00	-4.752806e+01
1.730000e-06	-5.341736e-07	-6.953855e-10	-3.788610e+00	-4.686627e+01
1.740000e-06	-4.885405e-07	-6.843126e-10	-3.464958e+00	-4.618998e+01
1.750000e-06	-4.427695e-07	-6.751636e-10	-3.140328e+00	-4.549882e+01
1.760000e-06	-3.968785e-07	-6.696747e-10	-2.814848e+00	-4.479241e+01
1.770000e-06	-3.510243e-07	-6.615410e-10	-2.489629e+00	-4.407032e+01
1.780000e-06	-3.051166e-07	-6.472631e-10	-2.164029e+00	-4.333209e+01
1.790000e-06	-2.592309e-07	-6.324052e-10	-1.838587e+00	-4.257722e+01
1.800000e-06	-2.134366e-07	-6.225248e-10	-1.513792e+00	-4.180515e+01
1.810000e-06	-1.676190e-07	-6.117109e-10	-1.188833e+00	-4.101531e+01
1.820000e-06	-1.217279e-07	-5.972150e-10	-8.633511e-01	-4.020708e+01
1.830000e-06	-7.584727e-08	-5.827612e-10	-5.379444e-01	-3.937980e+01
1.840000e-06	-2.999876e-08	-5.730507e-10	-2.127652e-01	-3.853278e+01
1.850000e-06	1.586428e-08	-5.637721e-10	1.125169e-01	-3.766530e+01
1.860000e-06	6.171648e-08	-5.503150e-10	4.377221e-01	-3.677661e+01
1.870000e-06	1.076264e-07	-5.343772e-10	7.633367e-01	-3.586596e+01
1.880000e-06	1.534989e-07	-5.204021e-10	1.088686e+00	-3.493255e+01
1.890000e-06	1.993190e-07	-5.065709e-10	1.413664e+00	-3.397560e+01
1.900000e-06	2.451298e-07	-4.892053e-10	1.738575e+00	-3.299431e+01
1.910000e-06	2.909502e-07	-4.720183e-10	2.063555e+00	-3.198789e+01
1.920000e-06	3.368011e-07	-4.579381e-10	2.388751e+00	-3.095556e+01
1.930000e-06	3.826573e-07	-4.447432e-10	2.713985e+00	-2.989657e+01
1.940000e-06	4.284482e-07	-4.286369e-10	3.038755e+00	-2.881018e+01
1.950000e-06	4.741119e-07	-4.068701e-10	3.362624e+00	-2.769570e+01
1.960000e-06	5.197046e-07	-3.846679e-10	3.685988e+00	-2.655248e+01
1.970000e-06	5.652779e-07	-3.664919e-10	4.009215e+00	-2.537992e+01
1.980000e-06	6.108529e-07	-3.471992e-10	4.332454e+00	-2.417750e+01
1.990000e-06	6.564281e-07	-3.252723e-10	4.655695e+00	-2.294475e+01
2.000000e-06	7.019455e-07	-3.035340e-10	4.978526e+00	-2.168129e+01
2.010000e-06	7.473845e-07	-2.865510e-10	5.300801e+00	-2.038683e+01
2.020000e-06	7.927500e-07	-2.709649e-10	5.622554e+00	-1.906115e+01
2.030000e-06	8.380582e-07	-2.508459e-10	5.943901e+00	-1.770418e+01
2.040000e-06	8.833435e-07	-2.261409e-10	6.265086e+00	-1.631591e+01
2.050000e-06	9.285570e-07	-2.026862e-10	6.585761e+00	-1.489647e+01
2.060000e-06	9.737033e-07	-1.810553e-10	6.905960e+00	-1.344611e+01
2.070000e-06	1.018837e-06	-1.566381e-10	7.226068e+00	-1.196520e+01
2.080000e-06	1.063906e-06	-1.298082e-10	7.545717e+00	-1.045422e+01
2.090000e-06	1.108819e-06	-1.069118e-10	7.864265e+00	-8.913804e+00
2.100000e-06	1.153659e-06	-8.623442e-11	8.182292e+00	-7.344705e+00
2.110000e-06	1.198335e-06	-6.267112e-11	8.499150e+00	-5.747811e+00
2.120000e-06	1.242874e-06	-3.533605e-11	8.815046e+00	-4.124138e+00
2.130000e-06	1.287443e-06	-9.964677e-12	9.131148e+00	-2.474833e+00
2.140000e-06	1.331926e-06	1.182229e-11	9.446645e+00	-8.011710e-01
2.150000e-06	1.376276e-06	3.623535e-11	9.761194e+00	8.954513e-01
2.160000e-06	1.420590e-06	6.349535e-11	1.007549e+01	2.613518e+00
2.170000e-06	1.464939e-06	8.845939e-11	1.039003e+01	4.351400e+00
2.180000e-06	1.509217e-06	1.126924e-10	1.070407e+01	6.107361e+00
2.190000e-06	1.553356e-06	1.396201e-10	1.101713e+01	7.879566e+00
2.200000e-06	1.597377e-06	1.700913e-10	1.132934e+01	9.666090e+00
2.210000e-06	1.641306e-06	1.977417e-10	1.164091e+01	1.146492e+01
2.220000e-06	1.685163e-06	2.206774e-10	1.195197e+01	1.327399e+01
2.230000e-06	1.728956e-06	2.458809e-10	1.226257e+01	1.509114e+01
2.240000e-06	1.772726e-06	2.778292e-10	1.257300e+01	1.691419e+01
2.250000e-06	1.816422e-06	3.120099e-10	1.288291e+01	1.874091e+01
2.260000e-06	1.860030e-06	3.409246e-10	1.319220e+01	2.056902e+01
2.270000e-06	1.903514e-06	3.676443e-10	1.350061e+01	2.239626e+01
2.280000e-06	1.946855e-06	3.975313e-10	1.380801e+01	2.422035e+01
2.290000e-06	1.990033e-06	4.285555e-10	1.411425e+01	2.603900e+01
2.300000e-06	2.032927e-06	4.532268e-10	1.441847e+01	2.784997e+01
2.310000e-06	2.075627e-06	4.746043e-10	1.472132e+01	2.965104e+01
2.320000e-06	2.118224e-06	5.022485e-10	1.502344e+01	3.144001e+01
2.330000e-06	2.160542e-06	5.351266e-10	1.532358e+01	3.321478e+01
2.340000e-06	2.202440e-06	5.618334e-10	1.562074e+01	3.497327e+01
2.350000e-06	2.244057e-06	5.819532e-10	1.591590e+01	3.671349e+01
2.360000e-06	2.285509e-06	6.041486e-10	1.620990e+01	3.843356e+01
2.370000e-06	2.326643e-06	6.317280e-10	1.650164e+01	4.013164e+01
2.380000e-06	2.367449e-06	6.597463e-10	1.679106e+01	4.180603e+01
2.390000e-06	2.408072e-06	6.880325e-10	1.707918e+01	4.345513e+01
2.400000e-06	2.448472e-06	7.170161e-10	1.736571e+01	4.507744e+01
2.410000e-06	2.488692e-06	7.441292e-10	1.765097e+01	4.667159e+01
2.420000e-06	2.528843e-06	7.664763e-10	1.793574e+01	4.823633e+01
2.430000e-06	2.568853e-06	7.858553e-10	1.821951e+01	4.977052e+01
2.440000e-06	2.608756e-06	8.072952e-10	1.850252e+01	5.127318e+01
2.450000e-06	2.648641e-06	8.304941e-10	1.878540e+01	5.274343e+01
2.460000e-06	2.688430e-06	8.533546e-10	1.906761e+01	5.418053e+01
2.470000e-06	2.728068e-06	8.750191e-10	1.934874e+01	5.558386e+01
2.480000e-06	2.767571e-06	8.966280e-10	1.962891e+01	5.695292e+01
2.490000e-06	2.806942e-06	9.196997e-10	1.990814e+01	5.828737e+01
2.500000e-06	2.846035e-06	9.408303e-10	2.018542e+01	5.958693e+01
2.510000e-06	2.884785e-06	9.587143e-10	2.046025e+01	6.085148e+01
2.520000e-06	2.923268e-06	9.775688e-10	2.073318e+01	6.208100e+01
2.530000e-06	2.961549e-06	9.999268e-10	2.100469e+01	6.327556e+01
2.540000e-06	2.999695e-06	1.020836e-09	2.127524e+01	6.443534e+01
2.550000e-06	3.037693e-06	1.037306e-09	2.154474e+01	6.556060e+01
2.560000e-06	3.075473e-06	1.053759e-09	2.181269e+01	6.665168e+01
2.570000e-06	3.113010e-06	1.073687e-09	2.207892e+01	6.770902e+01
2.580000e-06	3.150368e-06	1.093348e-09	2.234389e+01	6.873310e+01
2.590000e-06	3.187475e-06	1.107969e-09	2.260706e+01	6.972446e+01
2.600000e-06	3.224336e-06	1.121993e-09	2.286850e+01	7.068371e+01
2.610000e-06	3.261013e-06	1.139890e-09	2.312863e+01	7.161149e+01
2.620000e-06	3.297464e-06	1.158273e-09	2.338716e+01	7.250846e+01
2.630000e-06	3.333760e-06	1.171746e-09	2.364459e+01	7.337533e+01
2.640000e-06	3.369887e-06	1.183645e-09	2.390082e+01	7.421283e+01
2.650000e-06	3.405867e-06	1.195739e-09	2.415601e+01	7.502167e+01
2.660000e-06	3.441767e-06	1.204005e-09	2.441062e+01	7.580259e+01
2.670000e-06	3.477481e-06	1.207851e-09	2.466392e+01	7.655634e+01
2.680000e-06	3.513033e-06	1.214755e-09	2.491608e+01	7.728364e+01
2.690000e-06	3.548369e-06	1.227167e-09	2.516669e+01	7.798520e+01
2.700000e-06	3.583293e-06	1.241663e-09	2.541439e+01	7.866171e+01
2.710000e-06	3.617879e-06	1.253448e-09	2.565969e+01	7.931387e+01
2.720000e-06	3.652059e-06	1.261237e-09	2.590211e+01	7.994232e+01
2.730000e-06	3.685665e-06	1.270054e-09	2.614046e+01	8.054768e+01
2.740000e-06	3.718739e-06	1.281773e-09	2.637504e+01	8.113056e+01
2.750000e-06	3.751453e-06	1.291140e-09	2.660706e+01	8.169152e+01
2.760000e-06	3.783929e-06	1.296802e-09	2.683740e+01	8.223111e+01
2.770000e-06	3.816161e-06	1.301845e-09	2.706600e+01	8.274983e+01
2.780000e-06	3.848210e-06	1.308859e-09	2.729330e+01	8.324815e+01
2.790000e-06	3.880091e-06	1.317050e-09	2.751942e+01	8.372654e+01
2.800000e-06	3.911792e-06	1.322319e-09	2.774426e+01	8.418542e+01
2.810000e-06	3.943307e-06	1.323225e-09	2.796778e+01	8.462518e+01
2.820000e-06	3.974597e-06	1.327166e-09	2.818970e+01	8.504621e+01
2.830000e-06	4.005530e-06	1.337285e-09	2.840909e+01	8.544888e+01
2.840000e-06	4.036147e-06	1.345556e-09	2.862625e+01	8.583351e+01
2.850000e-06	4.066552e-06	1.347085e-09	2.884189e+01	8.620046e+01
2.860000e-06	4.096670e-06	1.348884e-09	2.905550e+01	8.655005e+01
2.870000e-06	4.126532e-06	1.356446e-09	2.926730e+01	8.688260e+01
2.880000e-06	4.156135e-06	1.363600e-09	2.947725e+01	8.719844e+01
2.890000e-06	4.185394e-06	1.366280e-09	2.968477e+01	8.749789e+01
2.900000e-06	4.214372e-06	1.367481e-09	2.989030e+01	8.778128e+01
