# Temperatura_=_18.0
# Concentracion g/m^3_=_4090.0
# C_Vs_to_Am_M_A/Vsm_=_65563218390.804596
# pendiente_HvsI_1/m_=_3716.3
# ordenada_HvsI_A/m_=_1297.0
# frecuencia_Hz_=_135084.31751993968

Tiempo_(s)	Campo_(V.s)	Magnetizacion_(V.s)	Campo_(kA/m)	Magnetizacion_(A/m)
0.000000e+00	-5.412699e-06	-1.187653e-09	-3.838637e+01	-8.113723e+01
1.000000e-08	-5.412855e-06	-1.182673e-09	-3.838747e+01	-8.100222e+01
2.000000e-08	-5.412714e-06	-1.176408e-09	-3.838647e+01	-8.087348e+01
3.000000e-08	-5.412315e-06	-1.170062e-09	-3.838364e+01	-8.075166e+01
4.000000e-08	-5.411578e-06	-1.168708e-09	-3.837842e+01	-8.063735e+01
5.000000e-08	-5.410202e-06	-1.172198e-09	-3.836866e+01	-8.053109e+01
6.000000e-08	-5.408110e-06	-1.178704e-09	-3.835382e+01	-8.043337e+01
7.000000e-08	-5.405444e-06	-1.187656e-09	-3.833492e+01	-8.034459e+01
8.000000e-08	-5.402223e-06	-1.173964e-09	-3.831207e+01	-8.026508e+01
9.000000e-08	-5.398488e-06	-1.126587e-09	-3.828558e+01	-8.019508e+01
1.000000e-07	-5.394409e-06	-1.170669e-09	-3.825666e+01	-8.013476e+01
1.100000e-07	-5.390079e-06	-1.251468e-09	-3.822595e+01	-8.008420e+01
1.200000e-07	-5.385503e-06	-1.206387e-09	-3.819349e+01	-8.004339e+01
1.300000e-07	-5.380639e-06	-1.083306e-09	-3.815900e+01	-8.001223e+01
1.400000e-07	-5.375411e-06	-1.136412e-09	-3.812192e+01	-7.999052e+01
1.500000e-07	-5.369818e-06	-1.275466e-09	-3.808226e+01	-7.997799e+01
1.600000e-07	-5.363850e-06	-1.235114e-09	-3.803994e+01	-7.997428e+01
1.700000e-07	-5.357426e-06	-1.032653e-09	-3.799437e+01	-7.997894e+01
1.800000e-07	-5.350593e-06	-1.114605e-09	-3.794592e+01	-7.999142e+01
1.900000e-07	-5.343337e-06	-1.270215e-09	-3.789446e+01	-8.001113e+01
2.000000e-07	-5.335786e-06	-1.256337e-09	-3.784091e+01	-8.003738e+01
2.100000e-07	-5.328078e-06	-1.101451e-09	-3.778624e+01	-8.006943e+01
2.200000e-07	-5.320104e-06	-1.198234e-09	-3.772969e+01	-8.010647e+01
2.300000e-07	-5.311825e-06	-1.301953e-09	-3.767098e+01	-8.014762e+01
2.400000e-07	-5.303215e-06	-1.230840e-09	-3.760991e+01	-8.019200e+01
2.500000e-07	-5.293933e-06	-1.175534e-09	-3.754409e+01	-8.023864e+01
2.600000e-07	-5.283904e-06	-1.280467e-09	-3.747297e+01	-8.028657e+01
2.700000e-07	-5.273218e-06	-1.317578e-09	-3.739718e+01	-8.033480e+01
2.800000e-07	-5.262051e-06	-1.205761e-09	-3.731799e+01	-8.038231e+01
2.900000e-07	-5.250575e-06	-1.235494e-09	-3.723660e+01	-8.042808e+01
3.000000e-07	-5.238679e-06	-1.324819e-09	-3.715223e+01	-8.047112e+01
3.100000e-07	-5.226462e-06	-1.278954e-09	-3.706559e+01	-8.051042e+01
3.200000e-07	-5.213915e-06	-1.193129e-09	-3.697661e+01	-8.054502e+01
3.300000e-07	-5.200912e-06	-1.302948e-09	-3.688439e+01	-8.057397e+01
3.400000e-07	-5.187477e-06	-1.312160e-09	-3.678911e+01	-8.059636e+01
3.500000e-07	-5.173701e-06	-1.246359e-09	-3.669142e+01	-8.061136e+01
3.600000e-07	-5.159607e-06	-1.237278e-09	-3.659146e+01	-8.061815e+01
3.700000e-07	-5.145024e-06	-1.308944e-09	-3.648804e+01	-8.061600e+01
3.800000e-07	-5.129810e-06	-1.228688e-09	-3.638014e+01	-8.060423e+01
3.900000e-07	-5.113948e-06	-1.224196e-09	-3.626765e+01	-8.058226e+01
4.000000e-07	-5.097516e-06	-1.269837e-09	-3.615111e+01	-8.054956e+01
4.100000e-07	-5.080773e-06	-1.262899e-09	-3.603237e+01	-8.050569e+01
4.200000e-07	-5.063788e-06	-1.208781e-09	-3.591192e+01	-8.045030e+01
4.300000e-07	-5.046550e-06	-1.272275e-09	-3.578967e+01	-8.038311e+01
4.400000e-07	-5.029030e-06	-1.280307e-09	-3.566542e+01	-8.030395e+01
4.500000e-07	-5.011176e-06	-1.227673e-09	-3.553880e+01	-8.021273e+01
4.600000e-07	-4.992982e-06	-1.220353e-09	-3.540977e+01	-8.010944e+01
4.700000e-07	-4.974395e-06	-1.262638e-09	-3.527795e+01	-7.999416e+01
4.800000e-07	-4.955451e-06	-1.234230e-09	-3.514360e+01	-7.986707e+01
4.900000e-07	-4.936174e-06	-1.213063e-09	-3.500689e+01	-7.972840e+01
5.000000e-07	-4.916577e-06	-1.223073e-09	-3.486792e+01	-7.957849e+01
5.100000e-07	-4.896768e-06	-1.225887e-09	-3.472743e+01	-7.941774e+01
5.200000e-07	-4.876704e-06	-1.230651e-09	-3.458514e+01	-7.924661e+01
5.300000e-07	-4.856382e-06	-1.234924e-09	-3.444101e+01	-7.906564e+01
5.400000e-07	-4.835822e-06	-1.218205e-09	-3.429521e+01	-7.887541e+01
5.500000e-07	-4.814869e-06	-1.209242e-09	-3.414661e+01	-7.867656e+01
5.600000e-07	-4.793507e-06	-1.230745e-09	-3.399512e+01	-7.846977e+01
5.700000e-07	-4.771818e-06	-1.217155e-09	-3.384130e+01	-7.825575e+01
5.800000e-07	-4.749756e-06	-1.196033e-09	-3.368483e+01	-7.803526e+01
5.900000e-07	-4.727450e-06	-1.189702e-09	-3.352664e+01	-7.780903e+01
6.000000e-07	-4.704865e-06	-1.204399e-09	-3.336648e+01	-7.757786e+01
6.100000e-07	-4.681916e-06	-1.204228e-09	-3.320372e+01	-7.734250e+01
6.200000e-07	-4.658607e-06	-1.204172e-09	-3.303841e+01	-7.710375e+01
6.300000e-07	-4.634911e-06	-1.183712e-09	-3.287037e+01	-7.686234e+01
6.400000e-07	-4.610990e-06	-1.195518e-09	-3.270072e+01	-7.661903e+01
6.500000e-07	-4.586961e-06	-1.205929e-09	-3.253031e+01	-7.637452e+01
6.600000e-07	-4.562800e-06	-1.199935e-09	-3.235896e+01	-7.612949e+01
6.700000e-07	-4.538332e-06	-1.173930e-09	-3.218544e+01	-7.588459e+01
6.800000e-07	-4.513438e-06	-1.184605e-09	-3.200889e+01	-7.564040e+01
6.900000e-07	-4.487974e-06	-1.185916e-09	-3.182830e+01	-7.539747e+01
7.000000e-07	-4.461871e-06	-1.181286e-09	-3.164318e+01	-7.515630e+01
7.100000e-07	-4.435154e-06	-1.163497e-09	-3.145370e+01	-7.491731e+01
7.200000e-07	-4.407986e-06	-1.167208e-09	-3.126103e+01	-7.468087e+01
7.300000e-07	-4.380492e-06	-1.175797e-09	-3.106605e+01	-7.444728e+01
7.400000e-07	-4.352731e-06	-1.185451e-09	-3.086917e+01	-7.421680e+01
7.500000e-07	-4.324871e-06	-1.166832e-09	-3.067159e+01	-7.398959e+01
7.600000e-07	-4.296920e-06	-1.157390e-09	-3.047336e+01	-7.376577e+01
7.700000e-07	-4.268816e-06	-1.161694e-09	-3.027405e+01	-7.354537e+01
7.800000e-07	-4.240427e-06	-1.166184e-09	-3.007272e+01	-7.332838e+01
7.900000e-07	-4.211629e-06	-1.151914e-09	-2.986849e+01	-7.311471e+01
8.000000e-07	-4.182510e-06	-1.142850e-09	-2.966198e+01	-7.290423e+01
8.100000e-07	-4.153072e-06	-1.143403e-09	-2.945320e+01	-7.269673e+01
8.200000e-07	-4.123287e-06	-1.145368e-09	-2.924197e+01	-7.249196e+01
8.300000e-07	-4.093311e-06	-1.142071e-09	-2.902938e+01	-7.228964e+01
8.400000e-07	-4.063127e-06	-1.130063e-09	-2.881533e+01	-7.208941e+01
8.500000e-07	-4.032629e-06	-1.129506e-09	-2.859903e+01	-7.189091e+01
8.600000e-07	-4.001811e-06	-1.136529e-09	-2.838048e+01	-7.169372e+01
8.700000e-07	-3.970689e-06	-1.141130e-09	-2.815976e+01	-7.149741e+01
8.800000e-07	-3.939379e-06	-1.128980e-09	-2.793771e+01	-7.130153e+01
8.900000e-07	-3.907849e-06	-1.120078e-09	-2.771411e+01	-7.110560e+01
9.000000e-07	-3.876111e-06	-1.113686e-09	-2.748903e+01	-7.090914e+01
9.100000e-07	-3.844282e-06	-1.110456e-09	-2.726330e+01	-7.071169e+01
9.200000e-07	-3.812282e-06	-1.097040e-09	-2.703636e+01	-7.051276e+01
9.300000e-07	-3.780033e-06	-1.094506e-09	-2.680765e+01	-7.031188e+01
9.400000e-07	-3.747491e-06	-1.102486e-09	-2.657686e+01	-7.010862e+01
9.500000e-07	-3.714614e-06	-1.117472e-09	-2.634370e+01	-6.990253e+01
9.600000e-07	-3.681296e-06	-1.115242e-09	-2.610742e+01	-6.969322e+01
9.700000e-07	-3.647461e-06	-1.106428e-09	-2.586746e+01	-6.948031e+01
9.800000e-07	-3.613252e-06	-1.090641e-09	-2.562486e+01	-6.926346e+01
9.900000e-07	-3.578675e-06	-1.082132e-09	-2.537964e+01	-6.904237e+01
1.000000e-06	-3.543653e-06	-1.069413e-09	-2.513127e+01	-6.881676e+01
1.010000e-06	-3.508307e-06	-1.064117e-09	-2.488059e+01	-6.858643e+01
1.020000e-06	-3.472754e-06	-1.064244e-09	-2.462846e+01	-6.835119e+01
1.030000e-06	-3.437035e-06	-1.073866e-09	-2.437514e+01	-6.811091e+01
1.040000e-06	-3.401154e-06	-1.077706e-09	-2.412068e+01	-6.786550e+01
1.050000e-06	-3.365188e-06	-1.074061e-09	-2.386561e+01	-6.761492e+01
1.060000e-06	-3.329130e-06	-1.063152e-09	-2.360989e+01	-6.735917e+01
1.070000e-06	-3.292869e-06	-1.051910e-09	-2.335273e+01	-6.709831e+01
1.080000e-06	-3.256361e-06	-1.038089e-09	-2.309381e+01	-6.683241e+01
1.090000e-06	-3.219576e-06	-1.027415e-09	-2.283294e+01	-6.656160e+01
1.100000e-06	-3.182467e-06	-1.021890e-09	-2.256976e+01	-6.628606e+01
1.110000e-06	-3.145124e-06	-1.022498e-09	-2.230493e+01	-6.600598e+01
1.120000e-06	-3.107611e-06	-1.024721e-09	-2.203889e+01	-6.572158e+01
1.130000e-06	-3.069931e-06	-1.023551e-09	-2.177167e+01	-6.543313e+01
1.140000e-06	-3.031951e-06	-1.022024e-09	-2.150232e+01	-6.514089e+01
1.150000e-06	-2.993749e-06	-1.018270e-09	-2.123140e+01	-6.484517e+01
1.160000e-06	-2.955478e-06	-1.012504e-09	-2.095998e+01	-6.454627e+01
1.170000e-06	-2.917056e-06	-1.002357e-09	-2.068750e+01	-6.424450e+01
1.180000e-06	-2.878459e-06	-9.933820e-10	-2.041377e+01	-6.394018e+01
1.190000e-06	-2.839591e-06	-9.854010e-10	-2.013812e+01	-6.363363e+01
1.200000e-06	-2.800421e-06	-9.851477e-10	-1.986033e+01	-6.332516e+01
1.210000e-06	-2.761031e-06	-9.851636e-10	-1.958098e+01	-6.301507e+01
1.220000e-06	-2.721503e-06	-9.851881e-10	-1.930065e+01	-6.270365e+01
1.230000e-06	-2.681769e-06	-9.819316e-10	-1.901886e+01	-6.239115e+01
1.240000e-06	-2.641943e-06	-9.795243e-10	-1.873642e+01	-6.207782e+01
1.250000e-06	-2.602150e-06	-9.741958e-10	-1.845421e+01	-6.176388e+01
1.260000e-06	-2.562266e-06	-9.694417e-10	-1.817135e+01	-6.144952e+01
1.270000e-06	-2.522269e-06	-9.583792e-10	-1.788770e+01	-6.113488e+01
1.280000e-06	-2.482170e-06	-9.517707e-10	-1.760333e+01	-6.082008e+01
1.290000e-06	-2.441873e-06	-9.489083e-10	-1.731754e+01	-6.050520e+01
1.300000e-06	-2.401360e-06	-9.472186e-10	-1.703022e+01	-6.019029e+01
1.310000e-06	-2.360692e-06	-9.396792e-10	-1.674181e+01	-5.987534e+01
1.320000e-06	-2.319741e-06	-9.363422e-10	-1.645139e+01	-5.956031e+01
1.330000e-06	-2.278560e-06	-9.371401e-10	-1.615934e+01	-5.924513e+01
1.340000e-06	-2.237243e-06	-9.377986e-10	-1.586632e+01	-5.892967e+01
1.350000e-06	-2.195578e-06	-9.334461e-10	-1.557084e+01	-5.861377e+01
1.360000e-06	-2.153447e-06	-9.261545e-10	-1.527205e+01	-5.829723e+01
1.370000e-06	-2.111040e-06	-9.183965e-10	-1.497130e+01	-5.797982e+01
1.380000e-06	-2.068382e-06	-9.110255e-10	-1.466878e+01	-5.766126e+01
1.390000e-06	-2.025418e-06	-9.017812e-10	-1.436408e+01	-5.734124e+01
1.400000e-06	-1.982304e-06	-8.913959e-10	-1.405832e+01	-5.701943e+01
1.410000e-06	-1.939059e-06	-8.840718e-10	-1.375163e+01	-5.669546e+01
1.420000e-06	-1.895670e-06	-8.841784e-10	-1.344392e+01	-5.636894e+01
1.430000e-06	-1.852168e-06	-8.871181e-10	-1.313541e+01	-5.603945e+01
1.440000e-06	-1.808526e-06	-8.858120e-10	-1.282590e+01	-5.570656e+01
1.450000e-06	-1.764773e-06	-8.800740e-10	-1.251561e+01	-5.536982e+01
1.460000e-06	-1.720986e-06	-8.720493e-10	-1.220507e+01	-5.502876e+01
1.470000e-06	-1.677162e-06	-8.646967e-10	-1.189428e+01	-5.468291e+01
1.480000e-06	-1.633269e-06	-8.554585e-10	-1.158300e+01	-5.433179e+01
1.490000e-06	-1.589299e-06	-8.485679e-10	-1.127116e+01	-5.397489e+01
1.500000e-06	-1.545295e-06	-8.432817e-10	-1.095909e+01	-5.361175e+01
1.510000e-06	-1.501176e-06	-8.428472e-10	-1.064620e+01	-5.324185e+01
1.520000e-06	-1.456936e-06	-8.411641e-10	-1.033246e+01	-5.286472e+01
1.530000e-06	-1.412616e-06	-8.342208e-10	-1.001814e+01	-5.247987e+01
1.540000e-06	-1.368304e-06	-8.221396e-10	-9.703886e+00	-5.208682e+01
1.550000e-06	-1.323979e-06	-8.105236e-10	-9.389538e+00	-5.168510e+01
1.560000e-06	-1.279487e-06	-8.005965e-10	-9.074006e+00	-5.127424e+01
1.570000e-06	-1.234814e-06	-7.936172e-10	-8.757191e+00	-5.085378e+01
1.580000e-06	-1.190110e-06	-7.864461e-10	-8.440149e+00	-5.042327e+01
1.590000e-06	-1.145363e-06	-7.819593e-10	-8.122810e+00	-4.998228e+01
1.600000e-06	-1.100440e-06	-7.783631e-10	-7.804218e+00	-4.953036e+01
1.610000e-06	-1.055456e-06	-7.722577e-10	-7.485199e+00	-4.906710e+01
1.620000e-06	-1.010358e-06	-7.603291e-10	-7.165366e+00	-4.859207e+01
1.630000e-06	-9.651318e-07	-7.478309e-10	-6.844627e+00	-4.810485e+01
1.640000e-06	-9.198751e-07	-7.376423e-10	-6.523670e+00	-4.760504e+01
1.650000e-06	-8.745929e-07	-7.293549e-10	-6.202533e+00	-4.709222e+01
1.660000e-06	-8.291669e-07	-7.210070e-10	-5.880376e+00	-4.656597e+01
1.670000e-06	-7.836488e-07	-7.163095e-10	-5.557566e+00	-4.602589e+01
1.680000e-06	-7.381529e-07	-7.132161e-10	-5.234913e+00	-4.547155e+01
1.690000e-06	-6.925561e-07	-7.046195e-10	-4.911545e+00	-4.490253e+01
1.700000e-06	-6.468698e-07	-6.902781e-10	-4.587542e+00	-4.431839e+01
1.710000e-06	-6.011554e-07	-6.768791e-10	-4.263339e+00	-4.371869e+01
1.720000e-06	-5.554640e-07	-6.676116e-10	-3.939300e+00	-4.310297e+01
1.730000e-06	-5.097178e-07	-6.608423e-10	-3.614872e+00	-4.247076e+01
1.740000e-06	-4.638866e-07	-6.513485e-10	-3.289842e+00	-4.182159e+01
1.750000e-06	-4.180463e-07	-6.397284e-10	-2.964746e+00	-4.115493e+01
1.760000e-06	-3.722698e-07	-6.301806e-10	-2.640103e+00	-4.047028e+01
1.770000e-06	-3.265141e-07	-6.191191e-10	-2.315608e+00	-3.976711e+01
1.780000e-06	-2.806100e-07	-6.043038e-10	-1.990061e+00	-3.904486e+01
1.790000e-06	-2.346828e-07	-5.886257e-10	-1.664349e+00	-3.830295e+01
1.800000e-06	-1.887552e-07	-5.770756e-10	-1.338634e+00	-3.754082e+01
1.810000e-06	-1.428339e-07	-5.667794e-10	-1.012965e+00	-3.675786e+01
1.820000e-06	-9.698790e-08	-5.558618e-10	-6.878293e-01	-3.595346e+01
1.830000e-06	-5.112672e-08	-5.434508e-10	-3.625860e-01	-3.512701e+01
1.840000e-06	-5.201118e-09	-5.325557e-10	-3.688585e-02	-3.427787e+01
1.850000e-06	4.064912e-08	-5.219332e-10	2.882799e-01	-3.340541e+01
1.860000e-06	8.650516e-08	-5.092607e-10	6.134867e-01	-3.250902e+01
1.870000e-06	1.325058e-07	-4.945896e-10	9.397193e-01	-3.158806e+01
1.880000e-06	1.784523e-07	-4.826061e-10	1.265568e+00	-3.064193e+01
1.890000e-06	2.243192e-07	-4.709519e-10	1.590851e+00	-2.967002e+01
1.900000e-06	2.701417e-07	-4.548200e-10	1.915820e+00	-2.867176e+01
1.910000e-06	3.158930e-07	-4.331063e-10	2.240285e+00	-2.764659e+01
1.920000e-06	3.616553e-07	-4.129416e-10	2.564826e+00	-2.659401e+01
1.930000e-06	4.073824e-07	-3.946753e-10	2.889119e+00	-2.551351e+01
1.940000e-06	4.530232e-07	-3.748284e-10	3.212799e+00	-2.440468e+01
1.950000e-06	4.987000e-07	-3.537544e-10	3.536735e+00	-2.326714e+01
1.960000e-06	5.443964e-07	-3.369956e-10	3.860809e+00	-2.210055e+01
1.970000e-06	5.900172e-07	-3.226305e-10	4.184348e+00	-2.090465e+01
1.980000e-06	6.355930e-07	-3.034057e-10	4.507567e+00	-1.967927e+01
1.990000e-06	6.812275e-07	-2.798353e-10	4.831203e+00	-1.842429e+01
2.000000e-06	7.268078e-07	-2.571527e-10	5.154454e+00	-1.713967e+01
2.010000e-06	7.722236e-07	-2.362241e-10	5.476539e+00	-1.582550e+01
2.020000e-06	8.175573e-07	-2.157841e-10	5.798042e+00	-1.448191e+01
2.030000e-06	8.628984e-07	-1.946871e-10	6.119597e+00	-1.310917e+01
2.040000e-06	9.082374e-07	-1.732764e-10	6.441136e+00	-1.170763e+01
2.050000e-06	9.534558e-07	-1.526239e-10	6.761822e+00	-1.027775e+01
2.060000e-06	9.985922e-07	-1.311271e-10	7.081924e+00	-8.820114e+00
2.070000e-06	1.043700e-06	-1.052420e-10	7.401823e+00	-7.335392e+00
2.080000e-06	1.088639e-06	-7.530922e-11	7.720527e+00	-5.824383e+00
2.090000e-06	1.133381e-06	-4.914589e-11	8.037836e+00	-4.287994e+00
2.100000e-06	1.178009e-06	-2.916183e-11	8.354335e+00	-2.727247e+00
2.110000e-06	1.222706e-06	-8.068847e-12	8.671319e+00	-1.143272e+00
2.120000e-06	1.267285e-06	1.844187e-11	8.987471e+00	4.626904e-01
2.130000e-06	1.311688e-06	4.412775e-11	9.302373e+00	2.089291e+00
2.140000e-06	1.356098e-06	6.578423e-11	9.617323e+00	3.735080e+00
2.150000e-06	1.400404e-06	8.888972e-11	9.931536e+00	5.398506e+00
2.160000e-06	1.444671e-06	1.174006e-10	1.024547e+01	7.077929e+00
2.170000e-06	1.488913e-06	1.462679e-10	1.055924e+01	8.771616e+00
2.180000e-06	1.533067e-06	1.710715e-10	1.087237e+01	1.047776e+01
2.190000e-06	1.577101e-06	1.939385e-10	1.118465e+01	1.219447e+01
2.200000e-06	1.621080e-06	2.206543e-10	1.149655e+01	1.391980e+01
2.210000e-06	1.665008e-06	2.493044e-10	1.180808e+01	1.565175e+01
2.220000e-06	1.708851e-06	2.759580e-10	1.211901e+01	1.738826e+01
2.230000e-06	1.752589e-06	3.011078e-10	1.242920e+01	1.912724e+01
2.240000e-06	1.796285e-06	3.301643e-10	1.273909e+01	2.086657e+01
2.250000e-06	1.839964e-06	3.604081e-10	1.304886e+01	2.260413e+01
2.260000e-06	1.883516e-06	3.872996e-10	1.335773e+01	2.433776e+01
2.270000e-06	1.926934e-06	4.109975e-10	1.366564e+01	2.606532e+01
2.280000e-06	1.970220e-06	4.353670e-10	1.397262e+01	2.778470e+01
2.290000e-06	2.013377e-06	4.631660e-10	1.427868e+01	2.949379e+01
2.300000e-06	2.056264e-06	4.894161e-10	1.458284e+01	3.119052e+01
2.310000e-06	2.098967e-06	5.108225e-10	1.488568e+01	3.287288e+01
2.320000e-06	2.141576e-06	5.348854e-10	1.518786e+01	3.453890e+01
2.330000e-06	2.183930e-06	5.639123e-10	1.548823e+01	3.618668e+01
2.340000e-06	2.225943e-06	5.923010e-10	1.578618e+01	3.781438e+01
2.350000e-06	2.267625e-06	6.174602e-10	1.608179e+01	3.942026e+01
2.360000e-06	2.309126e-06	6.403962e-10	1.637611e+01	4.100266e+01
2.370000e-06	2.350379e-06	6.646721e-10	1.666867e+01	4.256002e+01
2.380000e-06	2.391260e-06	6.889724e-10	1.695860e+01	4.409088e+01
2.390000e-06	2.431908e-06	7.112337e-10	1.724687e+01	4.559388e+01
2.400000e-06	2.472318e-06	7.309177e-10	1.753345e+01	4.706777e+01
2.410000e-06	2.512485e-06	7.509221e-10	1.781831e+01	4.851144e+01
2.420000e-06	2.552516e-06	7.749904e-10	1.810221e+01	4.992387e+01
2.430000e-06	2.592496e-06	8.009086e-10	1.838574e+01	5.130417e+01
2.440000e-06	2.632416e-06	8.247160e-10	1.866885e+01	5.265158e+01
2.450000e-06	2.672173e-06	8.425688e-10	1.895080e+01	5.396546e+01
2.460000e-06	2.711763e-06	8.586301e-10	1.923157e+01	5.524528e+01
2.470000e-06	2.751235e-06	8.726625e-10	1.951151e+01	5.649063e+01
2.480000e-06	2.790484e-06	8.849813e-10	1.978986e+01	5.770123e+01
2.490000e-06	2.829531e-06	8.979075e-10	2.006678e+01	5.887690e+01
2.500000e-06	2.868507e-06	9.172891e-10	2.034319e+01	6.001758e+01
2.510000e-06	2.907199e-06	9.449636e-10	2.061759e+01	6.112332e+01
2.520000e-06	2.945651e-06	9.733542e-10	2.089029e+01	6.219424e+01
2.530000e-06	2.983953e-06	9.982979e-10	2.116192e+01	6.323060e+01
2.540000e-06	3.022048e-06	1.015797e-09	2.143209e+01	6.423270e+01
2.550000e-06	3.059911e-06	1.024918e-09	2.170061e+01	6.520096e+01
2.560000e-06	3.097518e-06	1.028885e-09	2.196731e+01	6.613586e+01
2.570000e-06	3.135041e-06	1.033677e-09	2.223343e+01	6.703793e+01
2.580000e-06	3.172360e-06	1.043307e-09	2.249809e+01	6.790780e+01
2.590000e-06	3.209348e-06	1.061143e-09	2.276040e+01	6.874610e+01
2.600000e-06	3.246135e-06	1.086242e-09	2.302129e+01	6.955354e+01
2.610000e-06	3.282776e-06	1.109610e-09	2.328115e+01	7.033087e+01
2.620000e-06	3.319211e-06	1.124543e-09	2.353954e+01	7.107884e+01
2.630000e-06	3.355443e-06	1.132264e-09	2.379650e+01	7.179824e+01
2.640000e-06	3.391522e-06	1.134136e-09	2.405236e+01	7.248988e+01
2.650000e-06	3.427408e-06	1.134753e-09	2.430686e+01	7.315457e+01
2.660000e-06	3.463148e-06	1.136923e-09	2.456033e+01	7.379311e+01
2.670000e-06	3.498795e-06	1.143143e-09	2.481314e+01	7.440633e+01
2.680000e-06	3.534193e-06	1.151909e-09	2.506417e+01	7.499501e+01
2.690000e-06	3.569227e-06	1.163208e-09	2.531263e+01	7.555994e+01
2.700000e-06	3.603824e-06	1.176337e-09	2.555799e+01	7.610189e+01
2.710000e-06	3.637923e-06	1.189933e-09	2.579981e+01	7.662160e+01
2.720000e-06	3.671649e-06	1.199224e-09	2.603900e+01	7.711980e+01
2.730000e-06	3.705068e-06	1.204327e-09	2.627601e+01	7.759716e+01
2.740000e-06	3.738131e-06	1.206142e-09	2.651049e+01	7.805437e+01
2.750000e-06	3.770763e-06	1.207773e-09	2.674191e+01	7.849203e+01
2.760000e-06	3.803025e-06	1.210879e-09	2.697071e+01	7.891077e+01
2.770000e-06	3.835128e-06	1.213549e-09	2.719837e+01	7.931114e+01
2.780000e-06	3.867102e-06	1.218634e-09	2.742513e+01	7.969368e+01
2.790000e-06	3.898895e-06	1.226245e-09	2.765061e+01	8.005891e+01
2.800000e-06	3.930545e-06	1.232878e-09	2.787507e+01	8.040729e+01
2.810000e-06	3.961964e-06	1.236400e-09	2.809788e+01	8.073929e+01
2.820000e-06	3.992993e-06	1.239002e-09	2.831794e+01	8.105533e+01
2.830000e-06	4.023724e-06	1.241542e-09	2.853589e+01	8.135582e+01
2.840000e-06	4.054247e-06	1.244753e-09	2.875235e+01	8.164114e+01
2.850000e-06	4.084465e-06	1.249709e-09	2.896665e+01	8.191167e+01
2.860000e-06	4.114361e-06	1.253528e-09	2.917867e+01	8.216777e+01
2.870000e-06	4.144047e-06	1.255537e-09	2.938920e+01	8.240978e+01
2.880000e-06	4.173490e-06	1.256925e-09	2.959801e+01	8.263804e+01
2.890000e-06	4.202559e-06	1.256736e-09	2.980416e+01	8.285291e+01
2.900000e-06	4.231316e-06	1.258226e-09	3.000811e+01	8.305471e+01
