# Temperatura_=_16.9
# Concentracion g/m^3_=_4090.0
# C_Vs_to_Am_M_A/Vsm_=_65563218390.804596
# pendiente_HvsI_1/m_=_3716.3
# ordenada_HvsI_A/m_=_1297.0
# frecuencia_Hz_=_135087.43778540695

Tiempo_(s)	Campo_(V.s)	Magnetizacion_(V.s)	Campo_(kA/m)	Magnetizacion_(A/m)
0.000000e+00	-5.415378e-06	-1.341752e-09	-3.838831e+01	-8.901967e+01
1.000000e-08	-5.415470e-06	-1.329814e-09	-3.838897e+01	-8.888138e+01
2.000000e-08	-5.415330e-06	-1.321555e-09	-3.838798e+01	-8.874220e+01
3.000000e-08	-5.414878e-06	-1.321461e-09	-3.838477e+01	-8.860244e+01
4.000000e-08	-5.413968e-06	-1.327010e-09	-3.837832e+01	-8.846240e+01
5.000000e-08	-5.412430e-06	-1.333895e-09	-3.836741e+01	-8.832236e+01
6.000000e-08	-5.410223e-06	-1.349836e-09	-3.835177e+01	-8.818259e+01
7.000000e-08	-5.407428e-06	-1.370920e-09	-3.833195e+01	-8.804335e+01
8.000000e-08	-5.404107e-06	-1.354728e-09	-3.830841e+01	-8.790488e+01
9.000000e-08	-5.400276e-06	-1.279637e-09	-3.828126e+01	-8.776740e+01
1.000000e-07	-5.396132e-06	-1.259714e-09	-3.825188e+01	-8.763110e+01
1.100000e-07	-5.391888e-06	-1.355961e-09	-3.822180e+01	-8.749616e+01
1.200000e-07	-5.387459e-06	-1.364978e-09	-3.819041e+01	-8.736271e+01
1.300000e-07	-5.382579e-06	-1.269792e-09	-3.815581e+01	-8.723088e+01
1.400000e-07	-5.377275e-06	-1.262501e-09	-3.811821e+01	-8.710074e+01
1.500000e-07	-5.371693e-06	-1.412616e-09	-3.807864e+01	-8.697237e+01
1.600000e-07	-5.365755e-06	-1.455897e-09	-3.803655e+01	-8.684577e+01
1.700000e-07	-5.359309e-06	-1.244254e-09	-3.799085e+01	-8.672094e+01
1.800000e-07	-5.352408e-06	-1.203237e-09	-3.794193e+01	-8.659784e+01
1.900000e-07	-5.345215e-06	-1.306403e-09	-3.789095e+01	-8.647641e+01
2.000000e-07	-5.337803e-06	-1.367056e-09	-3.783840e+01	-8.635655e+01
2.100000e-07	-5.330118e-06	-1.229802e-09	-3.778393e+01	-8.623812e+01
2.200000e-07	-5.322172e-06	-1.264647e-09	-3.772760e+01	-8.612097e+01
2.300000e-07	-5.313980e-06	-1.347672e-09	-3.766953e+01	-8.600492e+01
2.400000e-07	-5.305329e-06	-1.324897e-09	-3.760820e+01	-8.588975e+01
2.500000e-07	-5.295922e-06	-1.243884e-09	-3.754152e+01	-8.577524e+01
2.600000e-07	-5.285795e-06	-1.312311e-09	-3.746973e+01	-8.566114e+01
2.700000e-07	-5.274992e-06	-1.355265e-09	-3.739315e+01	-8.554719e+01
2.800000e-07	-5.263788e-06	-1.262693e-09	-3.731373e+01	-8.543309e+01
2.900000e-07	-5.252298e-06	-1.245057e-09	-3.723228e+01	-8.531855e+01
3.000000e-07	-5.240398e-06	-1.336591e-09	-3.714792e+01	-8.520328e+01
3.100000e-07	-5.228159e-06	-1.332990e-09	-3.706116e+01	-8.508696e+01
3.200000e-07	-5.215541e-06	-1.231574e-09	-3.697172e+01	-8.496928e+01
3.300000e-07	-5.202488e-06	-1.283516e-09	-3.687919e+01	-8.484993e+01
3.400000e-07	-5.188995e-06	-1.333513e-09	-3.678354e+01	-8.472860e+01
3.500000e-07	-5.175241e-06	-1.310530e-09	-3.668604e+01	-8.460499e+01
3.600000e-07	-5.161195e-06	-1.273653e-09	-3.658647e+01	-8.447880e+01
3.700000e-07	-5.146667e-06	-1.317013e-09	-3.648348e+01	-8.434976e+01
3.800000e-07	-5.131511e-06	-1.272592e-09	-3.637605e+01	-8.421760e+01
3.900000e-07	-5.115639e-06	-1.269459e-09	-3.626354e+01	-8.408207e+01
4.000000e-07	-5.099243e-06	-1.292214e-09	-3.614731e+01	-8.394294e+01
4.100000e-07	-5.082570e-06	-1.286815e-09	-3.602911e+01	-8.380000e+01
4.200000e-07	-5.065623e-06	-1.230572e-09	-3.590898e+01	-8.365308e+01
4.300000e-07	-5.048409e-06	-1.288738e-09	-3.578696e+01	-8.350201e+01
4.400000e-07	-5.030922e-06	-1.317778e-09	-3.566300e+01	-8.334665e+01
4.500000e-07	-5.013085e-06	-1.279949e-09	-3.553655e+01	-8.318691e+01
4.600000e-07	-4.994889e-06	-1.235895e-09	-3.540757e+01	-8.302270e+01
4.700000e-07	-4.976279e-06	-1.267291e-09	-3.527565e+01	-8.285398e+01
4.800000e-07	-4.957188e-06	-1.261939e-09	-3.514031e+01	-8.268073e+01
4.900000e-07	-4.937772e-06	-1.250141e-09	-3.500268e+01	-8.250294e+01
5.000000e-07	-4.918123e-06	-1.232899e-09	-3.486339e+01	-8.232067e+01
5.100000e-07	-4.898268e-06	-1.238113e-09	-3.472264e+01	-8.213396e+01
5.200000e-07	-4.878213e-06	-1.255639e-09	-3.458048e+01	-8.194291e+01
5.300000e-07	-4.857909e-06	-1.270888e-09	-3.443655e+01	-8.174763e+01
5.400000e-07	-4.837232e-06	-1.240519e-09	-3.428998e+01	-8.154826e+01
5.500000e-07	-4.816141e-06	-1.223480e-09	-3.414047e+01	-8.134494e+01
5.600000e-07	-4.794708e-06	-1.248833e-09	-3.398853e+01	-8.113787e+01
5.700000e-07	-4.772919e-06	-1.253109e-09	-3.383407e+01	-8.092722e+01
5.800000e-07	-4.750884e-06	-1.222316e-09	-3.367788e+01	-8.071320e+01
5.900000e-07	-4.728601e-06	-1.200203e-09	-3.351992e+01	-8.049604e+01
6.000000e-07	-4.705907e-06	-1.209638e-09	-3.335904e+01	-8.027597e+01
6.100000e-07	-4.682814e-06	-1.223027e-09	-3.319535e+01	-8.005321e+01
6.200000e-07	-4.659346e-06	-1.227324e-09	-3.302899e+01	-7.982802e+01
6.300000e-07	-4.635655e-06	-1.208082e-09	-3.286104e+01	-7.960063e+01
6.400000e-07	-4.611773e-06	-1.216973e-09	-3.269175e+01	-7.937129e+01
6.500000e-07	-4.587668e-06	-1.234735e-09	-3.252087e+01	-7.914023e+01
6.600000e-07	-4.563269e-06	-1.230022e-09	-3.234792e+01	-7.890770e+01
6.700000e-07	-4.538414e-06	-1.184454e-09	-3.217172e+01	-7.867390e+01
6.800000e-07	-4.513191e-06	-1.174574e-09	-3.199292e+01	-7.843907e+01
6.900000e-07	-4.487454e-06	-1.185774e-09	-3.181048e+01	-7.820340e+01
7.000000e-07	-4.461143e-06	-1.200283e-09	-3.162397e+01	-7.796708e+01
7.100000e-07	-4.434457e-06	-1.187420e-09	-3.143480e+01	-7.773028e+01
7.200000e-07	-4.407415e-06	-1.191191e-09	-3.124310e+01	-7.749317e+01
7.300000e-07	-4.379982e-06	-1.201091e-09	-3.104864e+01	-7.725587e+01
7.400000e-07	-4.352268e-06	-1.214167e-09	-3.085218e+01	-7.701851e+01
7.500000e-07	-4.324439e-06	-1.188823e-09	-3.065491e+01	-7.678118e+01
7.600000e-07	-4.296429e-06	-1.166427e-09	-3.045635e+01	-7.654396e+01
7.700000e-07	-4.268216e-06	-1.161193e-09	-3.025636e+01	-7.630691e+01
7.800000e-07	-4.239761e-06	-1.172604e-09	-3.005464e+01	-7.607005e+01
7.900000e-07	-4.210903e-06	-1.166224e-09	-2.985008e+01	-7.583341e+01
8.000000e-07	-4.181662e-06	-1.159245e-09	-2.964280e+01	-7.559698e+01
8.100000e-07	-4.152201e-06	-1.156114e-09	-2.943396e+01	-7.536072e+01
8.200000e-07	-4.122546e-06	-1.165651e-09	-2.922374e+01	-7.512459e+01
8.300000e-07	-4.092585e-06	-1.165228e-09	-2.901135e+01	-7.488853e+01
8.400000e-07	-4.062331e-06	-1.149163e-09	-2.879689e+01	-7.465246e+01
8.500000e-07	-4.031766e-06	-1.134006e-09	-2.858022e+01	-7.441627e+01
8.600000e-07	-4.000896e-06	-1.136447e-09	-2.836139e+01	-7.417986e+01
8.700000e-07	-3.969735e-06	-1.141429e-09	-2.814050e+01	-7.394310e+01
8.800000e-07	-3.938327e-06	-1.132863e-09	-2.791785e+01	-7.370585e+01
8.900000e-07	-3.906796e-06	-1.121853e-09	-2.769434e+01	-7.346798e+01
9.000000e-07	-3.875120e-06	-1.119698e-09	-2.746980e+01	-7.322933e+01
9.100000e-07	-3.843215e-06	-1.125816e-09	-2.724363e+01	-7.298975e+01
9.200000e-07	-3.811117e-06	-1.118671e-09	-2.701609e+01	-7.274907e+01
9.300000e-07	-3.778740e-06	-1.110676e-09	-2.678658e+01	-7.250714e+01
9.400000e-07	-3.746076e-06	-1.111159e-09	-2.655503e+01	-7.226379e+01
9.500000e-07	-3.713145e-06	-1.121649e-09	-2.632159e+01	-7.201887e+01
9.600000e-07	-3.679653e-06	-1.117016e-09	-2.608418e+01	-7.177221e+01
9.700000e-07	-3.645667e-06	-1.103343e-09	-2.584326e+01	-7.152366e+01
9.800000e-07	-3.611418e-06	-1.087383e-09	-2.560047e+01	-7.127309e+01
9.900000e-07	-3.576730e-06	-1.086600e-09	-2.535458e+01	-7.102035e+01
1.000000e-06	-3.541635e-06	-1.082883e-09	-2.510580e+01	-7.076531e+01
1.010000e-06	-3.506313e-06	-1.080411e-09	-2.485541e+01	-7.050785e+01
1.020000e-06	-3.470796e-06	-1.076361e-09	-2.460364e+01	-7.024787e+01
1.030000e-06	-3.435114e-06	-1.083039e-09	-2.435070e+01	-6.998526e+01
1.040000e-06	-3.399260e-06	-1.084319e-09	-2.409654e+01	-6.971995e+01
1.050000e-06	-3.363273e-06	-1.076801e-09	-2.384143e+01	-6.945184e+01
1.060000e-06	-3.327135e-06	-1.061227e-09	-2.358526e+01	-6.918089e+01
1.070000e-06	-3.290783e-06	-1.054148e-09	-2.332757e+01	-6.890703e+01
1.080000e-06	-3.254126e-06	-1.049127e-09	-2.306771e+01	-6.863022e+01
1.090000e-06	-3.217155e-06	-1.044800e-09	-2.280564e+01	-6.835045e+01
1.100000e-06	-3.179880e-06	-1.038615e-09	-2.254141e+01	-6.806768e+01
1.110000e-06	-3.142369e-06	-1.039820e-09	-2.227550e+01	-6.778190e+01
1.120000e-06	-3.104705e-06	-1.042111e-09	-2.200851e+01	-6.749312e+01
1.130000e-06	-3.066881e-06	-1.037647e-09	-2.174038e+01	-6.720134e+01
1.140000e-06	-3.028881e-06	-1.026175e-09	-2.147101e+01	-6.690658e+01
1.150000e-06	-2.990692e-06	-1.016182e-09	-2.120030e+01	-6.660885e+01
1.160000e-06	-2.952399e-06	-1.010934e-09	-2.092885e+01	-6.630817e+01
1.170000e-06	-2.913923e-06	-1.005633e-09	-2.065610e+01	-6.600458e+01
1.180000e-06	-2.875157e-06	-9.980464e-10	-2.038130e+01	-6.569810e+01
1.190000e-06	-2.836103e-06	-9.912192e-10	-2.010445e+01	-6.538876e+01
1.200000e-06	-2.796808e-06	-9.918023e-10	-1.982590e+01	-6.507659e+01
1.210000e-06	-2.757376e-06	-9.940052e-10	-1.954638e+01	-6.476161e+01
1.220000e-06	-2.717813e-06	-9.916310e-10	-1.926592e+01	-6.444385e+01
1.230000e-06	-2.678143e-06	-9.823719e-10	-1.898471e+01	-6.412333e+01
1.240000e-06	-2.638389e-06	-9.764062e-10	-1.870290e+01	-6.380006e+01
1.250000e-06	-2.598526e-06	-9.715667e-10	-1.842033e+01	-6.347404e+01
1.260000e-06	-2.558537e-06	-9.689690e-10	-1.813685e+01	-6.314529e+01
1.270000e-06	-2.518413e-06	-9.622610e-10	-1.785242e+01	-6.281379e+01
1.280000e-06	-2.478117e-06	-9.593359e-10	-1.756678e+01	-6.247952e+01
1.290000e-06	-2.437735e-06	-9.588080e-10	-1.728052e+01	-6.214246e+01
1.300000e-06	-2.397245e-06	-9.573546e-10	-1.699349e+01	-6.180257e+01
1.310000e-06	-2.356500e-06	-9.477363e-10	-1.670466e+01	-6.145980e+01
1.320000e-06	-2.315440e-06	-9.404829e-10	-1.641360e+01	-6.111410e+01
1.330000e-06	-2.274165e-06	-9.384142e-10	-1.612101e+01	-6.076538e+01
1.340000e-06	-2.232685e-06	-9.393506e-10	-1.582697e+01	-6.041358e+01
1.350000e-06	-2.190855e-06	-9.366937e-10	-1.553044e+01	-6.005860e+01
1.360000e-06	-2.148673e-06	-9.319136e-10	-1.523143e+01	-5.970033e+01
1.370000e-06	-2.106206e-06	-9.262378e-10	-1.493039e+01	-5.933866e+01
1.380000e-06	-2.063520e-06	-9.212827e-10	-1.462780e+01	-5.897346e+01
1.390000e-06	-2.020671e-06	-9.136801e-10	-1.432405e+01	-5.860458e+01
1.400000e-06	-1.977646e-06	-9.057216e-10	-1.401906e+01	-5.823188e+01
1.410000e-06	-1.934443e-06	-8.996397e-10	-1.371280e+01	-5.785520e+01
1.420000e-06	-1.891076e-06	-8.967097e-10	-1.340538e+01	-5.747435e+01
1.430000e-06	-1.847516e-06	-8.951566e-10	-1.309660e+01	-5.708917e+01
1.440000e-06	-1.803843e-06	-8.917615e-10	-1.278701e+01	-5.669944e+01
1.450000e-06	-1.760147e-06	-8.856553e-10	-1.247726e+01	-5.630498e+01
1.460000e-06	-1.716365e-06	-8.789227e-10	-1.216690e+01	-5.590555e+01
1.470000e-06	-1.672389e-06	-8.719747e-10	-1.185516e+01	-5.550094e+01
1.480000e-06	-1.628359e-06	-8.644413e-10	-1.154304e+01	-5.509091e+01
1.490000e-06	-1.584287e-06	-8.583503e-10	-1.123063e+01	-5.467522e+01
1.500000e-06	-1.540128e-06	-8.524411e-10	-1.091760e+01	-5.425360e+01
1.510000e-06	-1.495961e-06	-8.481897e-10	-1.060451e+01	-5.382578e+01
1.520000e-06	-1.451725e-06	-8.415630e-10	-1.029093e+01	-5.339149e+01
1.530000e-06	-1.407315e-06	-8.324730e-10	-9.976119e+00	-5.295043e+01
1.540000e-06	-1.362835e-06	-8.244950e-10	-9.660809e+00	-5.250230e+01
1.550000e-06	-1.318289e-06	-8.164139e-10	-9.345032e+00	-5.204678e+01
1.560000e-06	-1.273749e-06	-8.065434e-10	-9.029301e+00	-5.158354e+01
1.570000e-06	-1.229210e-06	-7.992680e-10	-8.713575e+00	-5.111223e+01
1.580000e-06	-1.184435e-06	-7.931561e-10	-8.396173e+00	-5.063250e+01
1.590000e-06	-1.139486e-06	-7.875447e-10	-8.077541e+00	-5.014396e+01
1.600000e-06	-1.094489e-06	-7.814855e-10	-7.758572e+00	-4.964623e+01
1.610000e-06	-1.049457e-06	-7.724290e-10	-7.439348e+00	-4.913889e+01
1.620000e-06	-1.004351e-06	-7.592123e-10	-7.119606e+00	-4.862151e+01
1.630000e-06	-9.591958e-07	-7.459811e-10	-6.799509e+00	-4.809364e+01
1.640000e-06	-9.139928e-07	-7.337782e-10	-6.479075e+00	-4.755482e+01
1.650000e-06	-8.686566e-07	-7.252970e-10	-6.157698e+00	-4.700456e+01
1.660000e-06	-8.231883e-07	-7.179530e-10	-5.835384e+00	-4.644235e+01
1.670000e-06	-7.776997e-07	-7.133132e-10	-5.512926e+00	-4.586765e+01
1.680000e-06	-7.322391e-07	-7.078109e-10	-5.190667e+00	-4.527991e+01
1.690000e-06	-6.868071e-07	-6.981144e-10	-4.868611e+00	-4.467856e+01
1.700000e-06	-6.412926e-07	-6.856080e-10	-4.545969e+00	-4.406300e+01
1.710000e-06	-5.957024e-07	-6.737977e-10	-4.222791e+00	-4.343262e+01
1.720000e-06	-5.500865e-07	-6.608444e-10	-3.899431e+00	-4.278677e+01
1.730000e-06	-5.043629e-07	-6.489020e-10	-3.575307e+00	-4.212481e+01
1.740000e-06	-4.585825e-07	-6.366950e-10	-3.250781e+00	-4.144604e+01
1.750000e-06	-4.127586e-07	-6.255154e-10	-2.925946e+00	-4.074979e+01
1.760000e-06	-3.669417e-07	-6.171332e-10	-2.601161e+00	-4.003533e+01
1.770000e-06	-3.210816e-07	-6.080495e-10	-2.276070e+00	-3.930196e+01
1.780000e-06	-2.751592e-07	-5.964633e-10	-1.950537e+00	-3.854893e+01
1.790000e-06	-2.293026e-07	-5.838247e-10	-1.625471e+00	-3.777550e+01
1.800000e-06	-1.834381e-07	-5.705068e-10	-1.300349e+00	-3.698093e+01
1.810000e-06	-1.375408e-07	-5.551197e-10	-9.749940e-01	-3.616447e+01
1.820000e-06	-9.157799e-08	-5.402556e-10	-6.491743e-01	-3.532537e+01
1.830000e-06	-4.557089e-08	-5.270704e-10	-3.230411e-01	-3.446290e+01
1.840000e-06	3.949251e-10	-5.159750e-10	2.799529e-03	-3.357631e+01
1.850000e-06	4.625453e-08	-5.064781e-10	3.278873e-01	-3.266489e+01
1.860000e-06	9.210015e-08	-4.975460e-10	6.528759e-01	-3.172795e+01
1.870000e-06	1.380051e-07	-4.865992e-10	9.782847e-01	-3.076481e+01
1.880000e-06	1.839102e-07	-4.743874e-10	1.303696e+00	-2.977482e+01
1.890000e-06	2.297917e-07	-4.574568e-10	1.628938e+00	-2.875737e+01
1.900000e-06	2.756447e-07	-4.366537e-10	1.953979e+00	-2.771190e+01
1.910000e-06	3.214496e-07	-4.147895e-10	2.278679e+00	-2.663787e+01
1.920000e-06	3.672049e-07	-3.958069e-10	2.603028e+00	-2.553480e+01
1.930000e-06	4.129838e-07	-3.786559e-10	2.927543e+00	-2.440228e+01
1.940000e-06	4.587961e-07	-3.624238e-10	3.252295e+00	-2.323995e+01
1.950000e-06	5.045390e-07	-3.470878e-10	3.576556e+00	-2.204751e+01
1.960000e-06	5.501779e-07	-3.311162e-10	3.900079e+00	-2.082473e+01
1.970000e-06	5.958621e-07	-3.107481e-10	4.223923e+00	-1.957148e+01
1.980000e-06	6.414875e-07	-2.879242e-10	4.547350e+00	-1.828769e+01
1.990000e-06	6.870647e-07	-2.659231e-10	4.870436e+00	-1.697337e+01
2.000000e-06	7.326154e-07	-2.456409e-10	5.193335e+00	-1.562864e+01
2.010000e-06	7.780964e-07	-2.244437e-10	5.515738e+00	-1.425369e+01
2.020000e-06	8.235848e-07	-2.029469e-10	5.838195e+00	-1.284883e+01
2.030000e-06	8.689239e-07	-1.818415e-10	6.159593e+00	-1.141444e+01
2.040000e-06	9.141238e-07	-1.602221e-10	6.480004e+00	-9.951015e+00
2.050000e-06	9.593058e-07	-1.360306e-10	6.800289e+00	-8.459161e+00
2.060000e-06	1.004450e-06	-1.096759e-10	7.120308e+00	-6.939574e+00
2.070000e-06	1.049466e-06	-8.401744e-11	7.439410e+00	-5.393056e+00
2.080000e-06	1.094270e-06	-5.898949e-11	7.757016e+00	-3.820515e+00
2.090000e-06	1.139031e-06	-3.338618e-11	8.074317e+00	-2.222958e+00
2.100000e-06	1.183796e-06	-7.475785e-12	8.391642e+00	-6.014963e-01
2.110000e-06	1.228489e-06	1.992705e-11	8.708465e+00	1.042663e+00
2.120000e-06	1.273093e-06	4.851987e-11	9.024652e+00	2.708215e+00
2.130000e-06	1.317585e-06	7.387462e-11	9.340044e+00	4.393762e+00
2.140000e-06	1.361990e-06	9.705709e-11	9.654821e+00	6.097818e+00
2.150000e-06	1.406318e-06	1.210379e-10	9.969053e+00	7.818814e+00
2.160000e-06	1.450591e-06	1.454538e-10	1.028289e+01	9.555101e+00
2.170000e-06	1.494768e-06	1.722722e-10	1.059605e+01	1.130496e+01
2.180000e-06	1.538928e-06	2.008299e-10	1.090909e+01	1.306659e+01
2.190000e-06	1.583043e-06	2.280464e-10	1.122181e+01	1.483816e+01
2.200000e-06	1.627062e-06	2.543736e-10	1.153385e+01	1.661776e+01
2.210000e-06	1.671000e-06	2.806313e-10	1.184532e+01	1.840344e+01
2.220000e-06	1.714843e-06	3.092896e-10	1.215611e+01	2.019322e+01
2.230000e-06	1.758626e-06	3.372368e-10	1.246647e+01	2.198508e+01
2.240000e-06	1.802340e-06	3.648502e-10	1.277636e+01	2.377700e+01
2.250000e-06	1.845980e-06	3.933582e-10	1.308571e+01	2.556693e+01
2.260000e-06	1.889533e-06	4.244755e-10	1.339445e+01	2.735282e+01
2.270000e-06	1.932988e-06	4.538829e-10	1.370249e+01	2.913262e+01
2.280000e-06	1.976278e-06	4.800291e-10	1.400936e+01	3.090431e+01
2.290000e-06	2.019280e-06	5.062198e-10	1.431419e+01	3.266589e+01
2.300000e-06	2.062051e-06	5.321013e-10	1.461738e+01	3.441538e+01
2.310000e-06	2.104608e-06	5.581781e-10	1.491906e+01	3.615085e+01
2.320000e-06	2.146950e-06	5.857493e-10	1.521922e+01	3.787042e+01
2.330000e-06	2.189165e-06	6.121647e-10	1.551847e+01	3.957225e+01
2.340000e-06	2.231082e-06	6.379100e-10	1.581560e+01	4.125460e+01
2.350000e-06	2.272750e-06	6.636899e-10	1.611098e+01	4.291575e+01
2.360000e-06	2.314197e-06	6.875516e-10	1.640479e+01	4.455410e+01
2.370000e-06	2.355281e-06	7.119675e-10	1.669602e+01	4.616812e+01
2.380000e-06	2.396124e-06	7.375199e-10	1.698555e+01	4.775636e+01
2.390000e-06	2.436709e-06	7.622724e-10	1.727324e+01	4.931748e+01
2.400000e-06	2.477025e-06	7.848479e-10	1.755903e+01	5.085021e+01
2.410000e-06	2.517183e-06	8.065755e-10	1.784370e+01	5.235342e+01
2.420000e-06	2.557286e-06	8.304606e-10	1.812799e+01	5.382606e+01
2.430000e-06	2.597312e-06	8.568133e-10	1.841172e+01	5.526718e+01
2.440000e-06	2.637198e-06	8.795819e-10	1.869446e+01	5.667596e+01
2.450000e-06	2.676984e-06	8.968164e-10	1.897649e+01	5.805168e+01
2.460000e-06	2.716678e-06	9.164365e-10	1.925788e+01	5.939373e+01
2.470000e-06	2.756243e-06	9.381881e-10	1.953834e+01	6.070159e+01
2.480000e-06	2.795574e-06	9.568384e-10	1.981715e+01	6.197489e+01
2.490000e-06	2.834718e-06	9.721552e-10	2.009464e+01	6.321332e+01
2.500000e-06	2.873675e-06	9.904825e-10	2.037079e+01	6.441670e+01
2.510000e-06	2.912281e-06	1.014972e-09	2.064446e+01	6.558495e+01
2.520000e-06	2.950656e-06	1.038820e-09	2.091649e+01	6.671807e+01
2.530000e-06	2.988982e-06	1.058809e-09	2.118817e+01	6.781617e+01
2.540000e-06	3.027146e-06	1.073981e-09	2.145871e+01	6.887945e+01
2.550000e-06	3.065091e-06	1.086773e-09	2.172770e+01	6.990817e+01
2.560000e-06	3.102847e-06	1.098540e-09	2.199534e+01	7.090270e+01
2.570000e-06	3.140379e-06	1.107594e-09	2.226139e+01	7.186345e+01
2.580000e-06	3.177594e-06	1.118303e-09	2.252520e+01	7.279092e+01
2.590000e-06	3.214544e-06	1.136581e-09	2.278713e+01	7.368566e+01
2.600000e-06	3.251315e-06	1.158260e-09	2.304779e+01	7.454828e+01
2.610000e-06	3.287892e-06	1.176446e-09	2.330708e+01	7.537944e+01
2.620000e-06	3.324196e-06	1.189210e-09	2.356443e+01	7.617983e+01
2.630000e-06	3.360350e-06	1.200579e-09	2.382071e+01	7.695019e+01
2.640000e-06	3.396435e-06	1.210540e-09	2.407651e+01	7.769129e+01
2.650000e-06	3.432346e-06	1.216377e-09	2.433108e+01	7.840389e+01
2.660000e-06	3.468111e-06	1.218069e-09	2.458460e+01	7.908882e+01
2.670000e-06	3.503717e-06	1.221419e-09	2.483701e+01	7.974689e+01
2.680000e-06	3.539106e-06	1.232213e-09	2.508788e+01	8.037891e+01
2.690000e-06	3.574214e-06	1.246641e-09	2.533674e+01	8.098571e+01
2.700000e-06	3.609021e-06	1.259824e-09	2.558348e+01	8.156812e+01
2.710000e-06	3.643336e-06	1.271725e-09	2.582673e+01	8.212694e+01
2.720000e-06	3.677085e-06	1.282486e-09	2.606597e+01	8.266297e+01
2.730000e-06	3.710552e-06	1.291791e-09	2.630321e+01	8.317700e+01
2.740000e-06	3.743770e-06	1.295316e-09	2.653868e+01	8.366981e+01
2.750000e-06	3.776453e-06	1.295387e-09	2.677037e+01	8.414212e+01
2.760000e-06	3.808746e-06	1.298713e-09	2.699928e+01	8.459467e+01
2.770000e-06	3.840911e-06	1.305829e-09	2.722730e+01	8.502815e+01
2.780000e-06	3.872882e-06	1.314624e-09	2.745393e+01	8.544323e+01
2.790000e-06	3.904627e-06	1.322620e-09	2.767896e+01	8.584056e+01
2.800000e-06	3.936202e-06	1.330080e-09	2.790279e+01	8.622074e+01
2.810000e-06	3.967637e-06	1.335656e-09	2.812563e+01	8.658437e+01
2.820000e-06	3.998852e-06	1.340791e-09	2.834690e+01	8.693200e+01
2.830000e-06	4.029615e-06	1.345242e-09	2.856497e+01	8.726416e+01
2.840000e-06	4.059997e-06	1.351313e-09	2.878034e+01	8.758136e+01
2.850000e-06	4.090114e-06	1.357208e-09	2.899384e+01	8.788406e+01
2.860000e-06	4.120020e-06	1.359946e-09	2.920583e+01	8.817273e+01
2.870000e-06	4.149809e-06	1.361019e-09	2.941700e+01	8.844779e+01
2.880000e-06	4.179283e-06	1.362182e-09	2.962593e+01	8.870965e+01
2.890000e-06	4.208326e-06	1.362785e-09	2.983181e+01	8.895870e+01
2.900000e-06	4.237075e-06	1.363032e-09	3.003560e+01	8.919531e+01
