# Temperatura_=_-2.66
# Concentracion g/m^3_=_4090.0
# C_Vs_to_Am_M_A/Vsm_=_65563218390.804596
# pendiente_HvsI_1/m_=_3716.3
# ordenada_HvsI_A/m_=_1297.0
# frecuencia_Hz_=_135068.48040608864

Tiempo_(s)	Campo_(V.s)	Magnetizacion_(V.s)	Campo_(kA/m)	Magnetizacion_(A/m)
0.000000e+00	-5.403331e-06	-1.793025e-09	-3.838992e+01	-1.194170e+02
1.000000e-08	-5.403298e-06	-1.789352e-09	-3.838968e+01	-1.193299e+02
2.000000e-08	-5.403096e-06	-1.784709e-09	-3.838825e+01	-1.192477e+02
3.000000e-08	-5.402652e-06	-1.779683e-09	-3.838509e+01	-1.191706e+02
4.000000e-08	-5.401771e-06	-1.776955e-09	-3.837883e+01	-1.190993e+02
5.000000e-08	-5.400415e-06	-1.777676e-09	-3.836919e+01	-1.190341e+02
6.000000e-08	-5.398444e-06	-1.790623e-09	-3.835519e+01	-1.189752e+02
7.000000e-08	-5.395750e-06	-1.793497e-09	-3.833606e+01	-1.189230e+02
8.000000e-08	-5.392484e-06	-1.757604e-09	-3.831285e+01	-1.188775e+02
9.000000e-08	-5.388780e-06	-1.739251e-09	-3.828653e+01	-1.188390e+02
1.000000e-07	-5.384715e-06	-1.811943e-09	-3.825765e+01	-1.188074e+02
1.100000e-07	-5.380423e-06	-1.825066e-09	-3.822716e+01	-1.187827e+02
1.200000e-07	-5.375942e-06	-1.752832e-09	-3.819532e+01	-1.187648e+02
1.300000e-07	-5.371113e-06	-1.695400e-09	-3.816101e+01	-1.187535e+02
1.400000e-07	-5.365838e-06	-1.796355e-09	-3.812354e+01	-1.187484e+02
1.500000e-07	-5.360091e-06	-1.845842e-09	-3.808270e+01	-1.187493e+02
1.600000e-07	-5.354020e-06	-1.737771e-09	-3.803957e+01	-1.187558e+02
1.700000e-07	-5.347647e-06	-1.661560e-09	-3.799429e+01	-1.187673e+02
1.800000e-07	-5.340844e-06	-1.758495e-09	-3.794595e+01	-1.187833e+02
1.900000e-07	-5.333686e-06	-1.824730e-09	-3.789509e+01	-1.188032e+02
2.000000e-07	-5.326295e-06	-1.752345e-09	-3.784258e+01	-1.188263e+02
2.100000e-07	-5.318661e-06	-1.725403e-09	-3.778835e+01	-1.188519e+02
2.200000e-07	-5.310690e-06	-1.794545e-09	-3.773171e+01	-1.188791e+02
2.300000e-07	-5.302409e-06	-1.816108e-09	-3.767288e+01	-1.189072e+02
2.400000e-07	-5.293833e-06	-1.764597e-09	-3.761195e+01	-1.189354e+02
2.500000e-07	-5.284657e-06	-1.808937e-09	-3.754675e+01	-1.189627e+02
2.600000e-07	-5.274737e-06	-1.859682e-09	-3.747627e+01	-1.189883e+02
2.700000e-07	-5.264284e-06	-1.825260e-09	-3.740201e+01	-1.190112e+02
2.800000e-07	-5.253346e-06	-1.781952e-09	-3.732429e+01	-1.190306e+02
2.900000e-07	-5.241988e-06	-1.830450e-09	-3.724359e+01	-1.190455e+02
3.000000e-07	-5.230186e-06	-1.818982e-09	-3.715974e+01	-1.190550e+02
3.100000e-07	-5.217979e-06	-1.762166e-09	-3.707301e+01	-1.190582e+02
3.200000e-07	-5.205457e-06	-1.777860e-09	-3.698405e+01	-1.190544e+02
3.300000e-07	-5.192590e-06	-1.838944e-09	-3.689263e+01	-1.190426e+02
3.400000e-07	-5.179324e-06	-1.801136e-09	-3.679838e+01	-1.190220e+02
3.500000e-07	-5.165632e-06	-1.783562e-09	-3.670109e+01	-1.189920e+02
3.600000e-07	-5.151552e-06	-1.814572e-09	-3.660106e+01	-1.189518e+02
3.700000e-07	-5.137077e-06	-1.807718e-09	-3.649822e+01	-1.189008e+02
3.800000e-07	-5.121914e-06	-1.754736e-09	-3.639049e+01	-1.188385e+02
3.900000e-07	-5.105971e-06	-1.770090e-09	-3.627721e+01	-1.187643e+02
4.000000e-07	-5.089594e-06	-1.783098e-09	-3.616086e+01	-1.186779e+02
4.100000e-07	-5.072845e-06	-1.759840e-09	-3.604186e+01	-1.185787e+02
4.200000e-07	-5.055765e-06	-1.772423e-09	-3.592051e+01	-1.184667e+02
4.300000e-07	-5.038455e-06	-1.805400e-09	-3.579752e+01	-1.183415e+02
4.400000e-07	-5.020879e-06	-1.786876e-09	-3.567265e+01	-1.182030e+02
4.500000e-07	-5.003032e-06	-1.761987e-09	-3.554585e+01	-1.180513e+02
4.600000e-07	-4.984800e-06	-1.774139e-09	-3.541631e+01	-1.178862e+02
4.700000e-07	-4.966167e-06	-1.761211e-09	-3.528393e+01	-1.177080e+02
4.800000e-07	-4.947167e-06	-1.739011e-09	-3.514893e+01	-1.175168e+02
4.900000e-07	-4.927791e-06	-1.737231e-09	-3.501127e+01	-1.173129e+02
5.000000e-07	-4.908122e-06	-1.742958e-09	-3.487152e+01	-1.170966e+02
5.100000e-07	-4.888243e-06	-1.737400e-09	-3.473029e+01	-1.168683e+02
5.200000e-07	-4.868223e-06	-1.753093e-09	-3.458805e+01	-1.166284e+02
5.300000e-07	-4.847964e-06	-1.751629e-09	-3.444411e+01	-1.163774e+02
5.400000e-07	-4.827326e-06	-1.741875e-09	-3.429748e+01	-1.161159e+02
5.500000e-07	-4.806247e-06	-1.740097e-09	-3.414772e+01	-1.158446e+02
5.600000e-07	-4.784838e-06	-1.742094e-09	-3.399561e+01	-1.155639e+02
5.700000e-07	-4.763191e-06	-1.718036e-09	-3.384181e+01	-1.152746e+02
5.800000e-07	-4.741279e-06	-1.702559e-09	-3.368613e+01	-1.149775e+02
5.900000e-07	-4.719063e-06	-1.699998e-09	-3.352828e+01	-1.146731e+02
6.000000e-07	-4.696432e-06	-1.709418e-09	-3.336750e+01	-1.143622e+02
6.100000e-07	-4.673481e-06	-1.711782e-09	-3.320443e+01	-1.140456e+02
6.200000e-07	-4.650244e-06	-1.711218e-09	-3.303934e+01	-1.137239e+02
6.300000e-07	-4.626679e-06	-1.705891e-09	-3.287191e+01	-1.133978e+02
6.400000e-07	-4.602904e-06	-1.711718e-09	-3.270299e+01	-1.130681e+02
6.500000e-07	-4.578952e-06	-1.706128e-09	-3.253282e+01	-1.127354e+02
6.600000e-07	-4.554721e-06	-1.688539e-09	-3.236066e+01	-1.124003e+02
6.700000e-07	-4.530158e-06	-1.673414e-09	-3.218614e+01	-1.120635e+02
6.800000e-07	-4.505168e-06	-1.674506e-09	-3.200859e+01	-1.117255e+02
6.900000e-07	-4.479620e-06	-1.675389e-09	-3.182708e+01	-1.113868e+02
7.000000e-07	-4.453611e-06	-1.668489e-09	-3.164229e+01	-1.110479e+02
7.100000e-07	-4.427102e-06	-1.662256e-09	-3.145395e+01	-1.107092e+02
7.200000e-07	-4.400012e-06	-1.664888e-09	-3.126147e+01	-1.103710e+02
7.300000e-07	-4.372519e-06	-1.671441e-09	-3.106614e+01	-1.100338e+02
7.400000e-07	-4.344813e-06	-1.667259e-09	-3.086929e+01	-1.096977e+02
7.500000e-07	-4.316938e-06	-1.654855e-09	-3.067124e+01	-1.093629e+02
7.600000e-07	-4.288862e-06	-1.644894e-09	-3.047177e+01	-1.090296e+02
7.700000e-07	-4.260575e-06	-1.641497e-09	-3.027079e+01	-1.086978e+02
7.800000e-07	-4.232035e-06	-1.632188e-09	-3.006802e+01	-1.083675e+02
7.900000e-07	-4.203284e-06	-1.621160e-09	-2.986375e+01	-1.080388e+02
8.000000e-07	-4.174255e-06	-1.615972e-09	-2.965750e+01	-1.077114e+02
8.100000e-07	-4.144872e-06	-1.621759e-09	-2.944874e+01	-1.073854e+02
8.200000e-07	-4.115198e-06	-1.624524e-09	-2.923791e+01	-1.070604e+02
8.300000e-07	-4.085270e-06	-1.619059e-09	-2.902527e+01	-1.067363e+02
8.400000e-07	-4.055057e-06	-1.605395e-09	-2.881062e+01	-1.064127e+02
8.500000e-07	-4.024590e-06	-1.597694e-09	-2.859415e+01	-1.060894e+02
8.600000e-07	-3.993889e-06	-1.589066e-09	-2.837603e+01	-1.057661e+02
8.700000e-07	-3.962980e-06	-1.579736e-09	-2.815642e+01	-1.054423e+02
8.800000e-07	-3.931814e-06	-1.568655e-09	-2.793499e+01	-1.051176e+02
8.900000e-07	-3.900310e-06	-1.564523e-09	-2.771116e+01	-1.047918e+02
9.000000e-07	-3.868635e-06	-1.562701e-09	-2.748612e+01	-1.044643e+02
9.100000e-07	-3.836810e-06	-1.561187e-09	-2.726000e+01	-1.041348e+02
9.200000e-07	-3.804712e-06	-1.553800e-09	-2.703195e+01	-1.038029e+02
9.300000e-07	-3.772389e-06	-1.550413e-09	-2.680230e+01	-1.034680e+02
9.400000e-07	-3.739901e-06	-1.549862e-09	-2.657147e+01	-1.031299e+02
9.500000e-07	-3.707101e-06	-1.548434e-09	-2.633844e+01	-1.027882e+02
9.600000e-07	-3.673931e-06	-1.540399e-09	-2.610277e+01	-1.024424e+02
9.700000e-07	-3.640367e-06	-1.529328e-09	-2.586430e+01	-1.020924e+02
9.800000e-07	-3.606285e-06	-1.520127e-09	-2.562215e+01	-1.017376e+02
9.900000e-07	-3.571715e-06	-1.512791e-09	-2.537654e+01	-1.013779e+02
1.000000e-06	-3.536844e-06	-1.506570e-09	-2.512879e+01	-1.010131e+02
1.010000e-06	-3.501661e-06	-1.504636e-09	-2.487881e+01	-1.006428e+02
1.020000e-06	-3.466167e-06	-1.506473e-09	-2.462664e+01	-1.002669e+02
1.030000e-06	-3.430463e-06	-1.508579e-09	-2.437296e+01	-9.988526e+01
1.040000e-06	-3.394567e-06	-1.505980e-09	-2.411793e+01	-9.949779e+01
1.050000e-06	-3.358525e-06	-1.497169e-09	-2.386186e+01	-9.910441e+01
1.060000e-06	-3.322340e-06	-1.487552e-09	-2.360477e+01	-9.870508e+01
1.070000e-06	-3.286044e-06	-1.477158e-09	-2.334689e+01	-9.829980e+01
1.080000e-06	-3.249523e-06	-1.465902e-09	-2.308741e+01	-9.788860e+01
1.090000e-06	-3.212684e-06	-1.456404e-09	-2.282568e+01	-9.747156e+01
1.100000e-06	-3.175626e-06	-1.454044e-09	-2.256238e+01	-9.704877e+01
1.110000e-06	-3.138322e-06	-1.454052e-09	-2.229734e+01	-9.662036e+01
1.120000e-06	-3.100740e-06	-1.453046e-09	-2.203033e+01	-9.618647e+01
1.130000e-06	-3.063001e-06	-1.447285e-09	-2.176219e+01	-9.574728e+01
1.140000e-06	-3.025131e-06	-1.440189e-09	-2.149313e+01	-9.530297e+01
1.150000e-06	-2.987051e-06	-1.432559e-09	-2.122258e+01	-9.485374e+01
1.160000e-06	-2.948699e-06	-1.425404e-09	-2.095010e+01	-9.439979e+01
1.170000e-06	-2.910134e-06	-1.415155e-09	-2.067610e+01	-9.394135e+01
1.180000e-06	-2.871427e-06	-1.404930e-09	-2.040109e+01	-9.347861e+01
1.190000e-06	-2.832484e-06	-1.398103e-09	-2.012441e+01	-9.301180e+01
1.200000e-06	-2.793331e-06	-1.397184e-09	-1.984623e+01	-9.254112e+01
1.210000e-06	-2.753990e-06	-1.395024e-09	-1.956672e+01	-9.206675e+01
1.220000e-06	-2.714431e-06	-1.390075e-09	-1.928565e+01	-9.158888e+01
1.230000e-06	-2.674773e-06	-1.382740e-09	-1.900389e+01	-9.110766e+01
1.240000e-06	-2.635018e-06	-1.374936e-09	-1.872144e+01	-9.062322e+01
1.250000e-06	-2.595141e-06	-1.366074e-09	-1.843812e+01	-9.013567e+01
1.260000e-06	-2.555174e-06	-1.355398e-09	-1.815415e+01	-8.964511e+01
1.270000e-06	-2.515107e-06	-1.344776e-09	-1.786949e+01	-8.915158e+01
1.280000e-06	-2.474985e-06	-1.339678e-09	-1.758443e+01	-8.865510e+01
1.290000e-06	-2.434817e-06	-1.335685e-09	-1.729904e+01	-8.815566e+01
1.300000e-06	-2.394493e-06	-1.329580e-09	-1.701254e+01	-8.765321e+01
1.310000e-06	-2.353921e-06	-1.321779e-09	-1.672428e+01	-8.714768e+01
1.320000e-06	-2.313060e-06	-1.314797e-09	-1.643397e+01	-8.663894e+01
1.330000e-06	-2.271925e-06	-1.307557e-09	-1.614171e+01	-8.612685e+01
1.340000e-06	-2.230581e-06	-1.297840e-09	-1.584797e+01	-8.561122e+01
1.350000e-06	-2.188955e-06	-1.287132e-09	-1.555222e+01	-8.509184e+01
1.360000e-06	-2.146930e-06	-1.276885e-09	-1.525364e+01	-8.456845e+01
1.370000e-06	-2.104668e-06	-1.268955e-09	-1.495337e+01	-8.404078e+01
1.380000e-06	-2.062205e-06	-1.260698e-09	-1.465168e+01	-8.350852e+01
1.390000e-06	-2.019425e-06	-1.252634e-09	-1.434773e+01	-8.297135e+01
1.400000e-06	-1.976441e-06	-1.245513e-09	-1.404234e+01	-8.242891e+01
1.410000e-06	-1.933311e-06	-1.239730e-09	-1.373591e+01	-8.188084e+01
1.420000e-06	-1.890018e-06	-1.232834e-09	-1.342832e+01	-8.132675e+01
1.430000e-06	-1.846533e-06	-1.223615e-09	-1.311936e+01	-8.076625e+01
1.440000e-06	-1.802860e-06	-1.212151e-09	-1.280907e+01	-8.019892e+01
1.450000e-06	-1.759090e-06	-1.200029e-09	-1.249809e+01	-7.962438e+01
1.460000e-06	-1.715264e-06	-1.188237e-09	-1.218671e+01	-7.904219e+01
1.470000e-06	-1.671405e-06	-1.177604e-09	-1.187510e+01	-7.845197e+01
1.480000e-06	-1.627510e-06	-1.168755e-09	-1.156323e+01	-7.785330e+01
1.490000e-06	-1.583551e-06	-1.163908e-09	-1.125091e+01	-7.724581e+01
1.500000e-06	-1.539517e-06	-1.162116e-09	-1.093806e+01	-7.662909e+01
1.510000e-06	-1.495388e-06	-1.161788e-09	-1.062452e+01	-7.600280e+01
1.520000e-06	-1.451199e-06	-1.154992e-09	-1.031057e+01	-7.536658e+01
1.530000e-06	-1.406993e-06	-1.139618e-09	-9.996491e+00	-7.472011e+01
1.540000e-06	-1.362695e-06	-1.120207e-09	-9.681759e+00	-7.406308e+01
1.550000e-06	-1.318320e-06	-1.101392e-09	-9.366481e+00	-7.339521e+01
1.560000e-06	-1.273914e-06	-1.085216e-09	-9.050983e+00	-7.271623e+01
1.570000e-06	-1.229382e-06	-1.076798e-09	-8.734588e+00	-7.202591e+01
1.580000e-06	-1.184722e-06	-1.074223e-09	-8.417287e+00	-7.132404e+01
1.590000e-06	-1.140025e-06	-1.071578e-09	-8.099716e+00	-7.061043e+01
1.600000e-06	-1.095219e-06	-1.064504e-09	-7.781381e+00	-6.988492e+01
1.610000e-06	-1.050250e-06	-1.051160e-09	-7.461882e+00	-6.914737e+01
1.620000e-06	-1.005249e-06	-1.033407e-09	-7.142157e+00	-6.839766e+01
1.630000e-06	-9.601751e-07	-1.014407e-09	-6.821910e+00	-6.763570e+01
1.640000e-06	-9.149933e-07	-9.964454e-10	-6.500900e+00	-6.686139e+01
1.650000e-06	-8.697074e-07	-9.837132e-10	-6.179150e+00	-6.607468e+01
1.660000e-06	-8.243477e-07	-9.757630e-10	-5.856876e+00	-6.527550e+01
1.670000e-06	-7.789299e-07	-9.735229e-10	-5.534189e+00	-6.446380e+01
1.680000e-06	-7.334609e-07	-9.704657e-10	-5.211137e+00	-6.363956e+01
1.690000e-06	-6.879769e-07	-9.599442e-10	-4.887981e+00	-6.280271e+01
1.700000e-06	-6.424458e-07	-9.436810e-10	-4.564488e+00	-6.195324e+01
1.710000e-06	-5.969174e-07	-9.254558e-10	-4.241015e+00	-6.109107e+01
1.720000e-06	-5.514290e-07	-9.102445e-10	-3.917826e+00	-6.021617e+01
1.730000e-06	-5.059009e-07	-8.970648e-10	-3.594355e+00	-5.932845e+01
1.740000e-06	-4.602867e-07	-8.867672e-10	-3.270273e+00	-5.842784e+01
1.750000e-06	-4.145860e-07	-8.785192e-10	-2.945576e+00	-5.751423e+01
1.760000e-06	-3.688279e-07	-8.711094e-10	-2.620471e+00	-5.658748e+01
1.770000e-06	-3.230108e-07	-8.573498e-10	-2.294947e+00	-5.564745e+01
1.780000e-06	-2.771344e-07	-8.394000e-10	-1.969001e+00	-5.469395e+01
1.790000e-06	-2.313034e-07	-8.202487e-10	-1.643378e+00	-5.372677e+01
1.800000e-06	-1.854849e-07	-8.022949e-10	-1.317844e+00	-5.274566e+01
1.810000e-06	-1.396643e-07	-7.857693e-10	-9.922952e-01	-5.175034e+01
1.820000e-06	-9.386878e-08	-7.710139e-10	-6.669246e-01	-5.074050e+01
1.830000e-06	-4.812305e-08	-7.573341e-10	-3.419076e-01	-4.971578e+01
1.840000e-06	-2.383202e-09	-7.457133e-10	-1.693232e-02	-4.867580e+01
1.850000e-06	4.342777e-08	-7.347882e-10	3.085483e-01	-4.762014e+01
1.860000e-06	8.931159e-08	-7.216658e-10	6.345464e-01	-4.654835e+01
1.870000e-06	1.351669e-07	-7.048366e-10	9.603420e-01	-4.545993e+01
1.880000e-06	1.809785e-07	-6.867509e-10	1.285827e+00	-4.435437e+01
1.890000e-06	2.268009e-07	-6.685071e-10	1.611389e+00	-4.323113e+01
1.900000e-06	2.725727e-07	-6.494365e-10	1.936591e+00	-4.208964e+01
1.910000e-06	3.182857e-07	-6.296221e-10	2.261376e+00	-4.092932e+01
1.920000e-06	3.640268e-07	-6.101374e-10	2.586360e+00	-3.974955e+01
1.930000e-06	4.097512e-07	-5.924189e-10	2.911226e+00	-3.854973e+01
1.940000e-06	4.554112e-07	-5.730442e-10	3.235634e+00	-3.732925e+01
1.950000e-06	5.010670e-07	-5.517762e-10	3.560011e+00	-3.608747e+01
1.960000e-06	5.466795e-07	-5.323584e-10	3.884082e+00	-3.482379e+01
1.970000e-06	5.922371e-07	-5.128270e-10	4.207762e+00	-3.353761e+01
1.980000e-06	6.378183e-07	-4.914120e-10	4.531610e+00	-3.222834e+01
1.990000e-06	6.833216e-07	-4.702077e-10	4.854905e+00	-3.089543e+01
2.000000e-06	7.287686e-07	-4.491136e-10	5.177800e+00	-2.953834e+01
2.010000e-06	7.741891e-07	-4.297907e-10	5.500506e+00	-2.815660e+01
2.020000e-06	8.194573e-07	-4.085690e-10	5.822130e+00	-2.674974e+01
2.030000e-06	8.646862e-07	-3.863641e-10	6.143476e+00	-2.531739e+01
2.040000e-06	9.099250e-07	-3.623962e-10	6.464890e+00	-2.385919e+01
2.050000e-06	9.550067e-07	-3.365319e-10	6.785190e+00	-2.237488e+01
2.060000e-06	9.999712e-07	-3.107291e-10	7.104656e+00	-2.086425e+01
2.070000e-06	1.044902e-06	-2.862858e-10	7.423885e+00	-1.932716e+01
2.080000e-06	1.089730e-06	-2.611696e-10	7.742382e+00	-1.776356e+01
2.090000e-06	1.134539e-06	-2.386767e-10	8.060741e+00	-1.617348e+01
2.100000e-06	1.179265e-06	-2.163869e-10	8.378513e+00	-1.455703e+01
2.110000e-06	1.223822e-06	-1.882066e-10	8.695085e+00	-1.291442e+01
2.120000e-06	1.268249e-06	-1.561532e-10	9.010732e+00	-1.124595e+01
2.130000e-06	1.312527e-06	-1.287472e-10	9.325321e+00	-9.552001e+00
2.140000e-06	1.356745e-06	-1.050278e-10	9.639488e+00	-7.833071e+00
2.150000e-06	1.400971e-06	-7.951706e-11	9.953702e+00	-6.089744e+00
2.160000e-06	1.445137e-06	-5.101340e-11	1.026750e+01	-4.322703e+00
2.170000e-06	1.489250e-06	-2.359252e-11	1.058091e+01	-2.532728e+00
2.180000e-06	1.533308e-06	-1.168037e-12	1.089394e+01	-7.206930e-01
2.190000e-06	1.577292e-06	2.375676e-11	1.120644e+01	1.112435e+00
2.200000e-06	1.621245e-06	5.480240e-11	1.151872e+01	2.965599e+00
2.210000e-06	1.665156e-06	8.488793e-11	1.183070e+01	4.837654e+00
2.220000e-06	1.708971e-06	1.106471e-10	1.214200e+01	6.727373e+00
2.230000e-06	1.752736e-06	1.372866e-10	1.245294e+01	8.633452e+00
2.240000e-06	1.796442e-06	1.689297e-10	1.276347e+01	1.055451e+01
2.250000e-06	1.840038e-06	2.015286e-10	1.307321e+01	1.248911e+01
2.260000e-06	1.883553e-06	2.295815e-10	1.338238e+01	1.443574e+01
2.270000e-06	1.926940e-06	2.550522e-10	1.369064e+01	1.639283e+01
2.280000e-06	1.970121e-06	2.828271e-10	1.399744e+01	1.835879e+01
2.290000e-06	2.013117e-06	3.158563e-10	1.430292e+01	2.033196e+01
2.300000e-06	2.055863e-06	3.458171e-10	1.460662e+01	2.231067e+01
2.310000e-06	2.098377e-06	3.723191e-10	1.490868e+01	2.429320e+01
2.320000e-06	2.140718e-06	4.013452e-10	1.520950e+01	2.627783e+01
2.330000e-06	2.182794e-06	4.319037e-10	1.550845e+01	2.826283e+01
2.340000e-06	2.224544e-06	4.591199e-10	1.580508e+01	3.024646e+01
2.350000e-06	2.265970e-06	4.840470e-10	1.609940e+01	3.222699e+01
2.360000e-06	2.307051e-06	5.123694e-10	1.639128e+01	3.420271e+01
2.370000e-06	2.347855e-06	5.480973e-10	1.668119e+01	3.617192e+01
2.380000e-06	2.388418e-06	5.825293e-10	1.696938e+01	3.813295e+01
2.390000e-06	2.428797e-06	6.097770e-10	1.725626e+01	4.008417e+01
2.400000e-06	2.469092e-06	6.344630e-10	1.754255e+01	4.202398e+01
2.410000e-06	2.509247e-06	6.625147e-10	1.782785e+01	4.395084e+01
2.420000e-06	2.549253e-06	6.926867e-10	1.811209e+01	4.586324e+01
2.430000e-06	2.589119e-06	7.220246e-10	1.839533e+01	4.775975e+01
2.440000e-06	2.628897e-06	7.515522e-10	1.867795e+01	4.963900e+01
2.450000e-06	2.668604e-06	7.829331e-10	1.896006e+01	5.149967e+01
2.460000e-06	2.708195e-06	8.155224e-10	1.924135e+01	5.334051e+01
2.470000e-06	2.747605e-06	8.414422e-10	1.952135e+01	5.516036e+01
2.480000e-06	2.786845e-06	8.631142e-10	1.980014e+01	5.695812e+01
2.490000e-06	2.825923e-06	8.872248e-10	2.007779e+01	5.873275e+01
2.500000e-06	2.864797e-06	9.155892e-10	2.035399e+01	6.048332e+01
2.510000e-06	2.903438e-06	9.455368e-10	2.062852e+01	6.220895e+01
2.520000e-06	2.941818e-06	9.777817e-10	2.090121e+01	6.390886e+01
2.530000e-06	2.979979e-06	1.010863e-09	2.117234e+01	6.558231e+01
2.540000e-06	3.017981e-06	1.040027e-09	2.144234e+01	6.722868e+01
2.550000e-06	3.055779e-06	1.061765e-09	2.171088e+01	6.884739e+01
2.560000e-06	3.093367e-06	1.079423e-09	2.197794e+01	7.043794e+01
2.570000e-06	3.130790e-06	1.099782e-09	2.224383e+01	7.199992e+01
2.580000e-06	3.167969e-06	1.123218e-09	2.250798e+01	7.353295e+01
2.590000e-06	3.204959e-06	1.147122e-09	2.277079e+01	7.503675e+01
2.600000e-06	3.241783e-06	1.173841e-09	2.303241e+01	7.651107e+01
2.610000e-06	3.278347e-06	1.203982e-09	2.329220e+01	7.795575e+01
2.620000e-06	3.314641e-06	1.231849e-09	2.355007e+01	7.937067e+01
2.630000e-06	3.350768e-06	1.251027e-09	2.380674e+01	8.075574e+01
2.640000e-06	3.386782e-06	1.263090e-09	2.406261e+01	8.211095e+01
2.650000e-06	3.422700e-06	1.276518e-09	2.431781e+01	8.343632e+01
2.660000e-06	3.458474e-06	1.294050e-09	2.457198e+01	8.473191e+01
2.670000e-06	3.494051e-06	1.312285e-09	2.482474e+01	8.599781e+01
2.680000e-06	3.529429e-06	1.330369e-09	2.507610e+01	8.723415e+01
2.690000e-06	3.564515e-06	1.351838e-09	2.532538e+01	8.844110e+01
2.700000e-06	3.599140e-06	1.377222e-09	2.557139e+01	8.961883e+01
2.710000e-06	3.633208e-06	1.401935e-09	2.581344e+01	9.076756e+01
2.720000e-06	3.666761e-06	1.417402e-09	2.605183e+01	9.188752e+01
2.730000e-06	3.699951e-06	1.428617e-09	2.628764e+01	9.297896e+01
2.740000e-06	3.732795e-06	1.442635e-09	2.652099e+01	9.404214e+01
2.750000e-06	3.765231e-06	1.457474e-09	2.675144e+01	9.507734e+01
2.760000e-06	3.797431e-06	1.469762e-09	2.698022e+01	9.608485e+01
2.770000e-06	3.829493e-06	1.481312e-09	2.720802e+01	9.706498e+01
2.780000e-06	3.861433e-06	1.497723e-09	2.743494e+01	9.801805e+01
2.790000e-06	3.893250e-06	1.516740e-09	2.766100e+01	9.894437e+01
2.800000e-06	3.924839e-06	1.529848e-09	2.788543e+01	9.984428e+01
2.810000e-06	3.956228e-06	1.535270e-09	2.810845e+01	1.007181e+02
2.820000e-06	3.987378e-06	1.541050e-09	2.832977e+01	1.015662e+02
2.830000e-06	4.018165e-06	1.553375e-09	2.854850e+01	1.023890e+02
2.840000e-06	4.048609e-06	1.566808e-09	2.876480e+01	1.031867e+02
2.850000e-06	4.078703e-06	1.576999e-09	2.897862e+01	1.039598e+02
2.860000e-06	4.108508e-06	1.588069e-09	2.919038e+01	1.047086e+02
2.870000e-06	4.138120e-06	1.602984e-09	2.940077e+01	1.054336e+02
2.880000e-06	4.167514e-06	1.615577e-09	2.960961e+01	1.061352e+02
2.890000e-06	4.196626e-06	1.620884e-09	2.981645e+01	1.068136e+02
2.900000e-06	4.225459e-06	1.625647e-09	3.002130e+01	1.074695e+02
