# Temperatura_=_18.24
# Concentracion g/m^3_=_4090.0
# C_Vs_to_Am_M_A/Vsm_=_65563218390.804596
# pendiente_HvsI_1/m_=_3716.3
# ordenada_HvsI_A/m_=_1297.0
# frecuencia_Hz_=_135084.88325260175

Tiempo_(s)	Campo_(V.s)	Magnetizacion_(V.s)	Campo_(kA/m)	Magnetizacion_(A/m)
0.000000e+00	-5.430493e-06	-1.289342e-09	-3.837643e+01	-8.780250e+01
1.000000e-08	-5.430619e-06	-1.285391e-09	-3.837733e+01	-8.764354e+01
2.000000e-08	-5.430504e-06	-1.279797e-09	-3.837651e+01	-8.749348e+01
3.000000e-08	-5.430041e-06	-1.271765e-09	-3.837324e+01	-8.735324e+01
4.000000e-08	-5.429257e-06	-1.264553e-09	-3.836770e+01	-8.722367e+01
5.000000e-08	-5.427992e-06	-1.261253e-09	-3.835876e+01	-8.710556e+01
6.000000e-08	-5.426072e-06	-1.257417e-09	-3.834519e+01	-8.699957e+01
7.000000e-08	-5.423432e-06	-1.254173e-09	-3.832653e+01	-8.690627e+01
8.000000e-08	-5.420159e-06	-1.298562e-09	-3.830341e+01	-8.682613e+01
9.000000e-08	-5.416329e-06	-1.337155e-09	-3.827634e+01	-8.675947e+01
1.000000e-07	-5.412115e-06	-1.280483e-09	-3.824656e+01	-8.670653e+01
1.100000e-07	-5.407854e-06	-1.234133e-09	-3.821645e+01	-8.666741e+01
1.200000e-07	-5.403546e-06	-1.311551e-09	-3.818600e+01	-8.664208e+01
1.300000e-07	-5.398848e-06	-1.310764e-09	-3.815280e+01	-8.663039e+01
1.400000e-07	-5.393527e-06	-1.264913e-09	-3.811520e+01	-8.663206e+01
1.500000e-07	-5.387858e-06	-1.181859e-09	-3.807514e+01	-8.664668e+01
1.600000e-07	-5.382083e-06	-1.330589e-09	-3.803433e+01	-8.667375e+01
1.700000e-07	-5.375738e-06	-1.325981e-09	-3.798949e+01	-8.671260e+01
1.800000e-07	-5.368690e-06	-1.238462e-09	-3.793968e+01	-8.676249e+01
1.900000e-07	-5.361393e-06	-1.231211e-09	-3.788811e+01	-8.682257e+01
2.000000e-07	-5.354043e-06	-1.367805e-09	-3.783618e+01	-8.689185e+01
2.100000e-07	-5.346464e-06	-1.360912e-09	-3.778261e+01	-8.696931e+01
2.200000e-07	-5.338564e-06	-1.258678e-09	-3.772678e+01	-8.705380e+01
2.300000e-07	-5.330435e-06	-1.350043e-09	-3.766934e+01	-8.714412e+01
2.400000e-07	-5.322026e-06	-1.441531e-09	-3.760992e+01	-8.723900e+01
2.500000e-07	-5.312794e-06	-1.403864e-09	-3.754467e+01	-8.733713e+01
2.600000e-07	-5.302607e-06	-1.347547e-09	-3.747268e+01	-8.743716e+01
2.700000e-07	-5.292008e-06	-1.493536e-09	-3.739778e+01	-8.753770e+01
2.800000e-07	-5.280885e-06	-1.494798e-09	-3.731918e+01	-8.763736e+01
2.900000e-07	-5.269276e-06	-1.377027e-09	-3.723714e+01	-8.773474e+01
3.000000e-07	-5.257388e-06	-1.370636e-09	-3.715313e+01	-8.782845e+01
3.100000e-07	-5.245142e-06	-1.524960e-09	-3.706659e+01	-8.791714e+01
3.200000e-07	-5.232454e-06	-1.458902e-09	-3.697692e+01	-8.799946e+01
3.300000e-07	-5.219373e-06	-1.381851e-09	-3.688448e+01	-8.807414e+01
3.400000e-07	-5.205920e-06	-1.426851e-09	-3.678941e+01	-8.813994e+01
3.500000e-07	-5.192108e-06	-1.488561e-09	-3.669181e+01	-8.819571e+01
3.600000e-07	-5.177975e-06	-1.397952e-09	-3.659193e+01	-8.824036e+01
3.700000e-07	-5.163502e-06	-1.417103e-09	-3.648965e+01	-8.827289e+01
3.800000e-07	-5.148321e-06	-1.428214e-09	-3.638237e+01	-8.829238e+01
3.900000e-07	-5.132274e-06	-1.391495e-09	-3.626897e+01	-8.829804e+01
4.000000e-07	-5.115891e-06	-1.389108e-09	-3.615319e+01	-8.828916e+01
4.100000e-07	-5.099240e-06	-1.465141e-09	-3.603552e+01	-8.826514e+01
4.200000e-07	-5.082182e-06	-1.403356e-09	-3.591498e+01	-8.822552e+01
4.300000e-07	-5.064870e-06	-1.352122e-09	-3.579264e+01	-8.816993e+01
4.400000e-07	-5.047317e-06	-1.421443e-09	-3.566859e+01	-8.809812e+01
4.500000e-07	-5.029447e-06	-1.437930e-09	-3.554231e+01	-8.800998e+01
4.600000e-07	-5.011249e-06	-1.363197e-09	-3.541370e+01	-8.790549e+01
4.700000e-07	-4.992699e-06	-1.357982e-09	-3.528261e+01	-8.778477e+01
4.800000e-07	-4.973661e-06	-1.400830e-09	-3.514808e+01	-8.764802e+01
4.900000e-07	-4.954196e-06	-1.381442e-09	-3.501052e+01	-8.749558e+01
5.000000e-07	-4.934552e-06	-1.375093e-09	-3.487169e+01	-8.732788e+01
5.100000e-07	-4.914750e-06	-1.360139e-09	-3.473176e+01	-8.714544e+01
5.200000e-07	-4.894724e-06	-1.350075e-09	-3.459024e+01	-8.694887e+01
5.300000e-07	-4.874490e-06	-1.361824e-09	-3.444725e+01	-8.673887e+01
5.400000e-07	-4.854071e-06	-1.388601e-09	-3.430295e+01	-8.651621e+01
5.500000e-07	-4.833181e-06	-1.338883e-09	-3.415532e+01	-8.628172e+01
5.600000e-07	-4.811804e-06	-1.333965e-09	-3.400426e+01	-8.603628e+01
5.700000e-07	-4.790159e-06	-1.357068e-09	-3.385130e+01	-8.578082e+01
5.800000e-07	-4.768235e-06	-1.356802e-09	-3.369636e+01	-8.551630e+01
5.900000e-07	-4.745915e-06	-1.312520e-09	-3.353863e+01	-8.524373e+01
6.000000e-07	-4.723214e-06	-1.318058e-09	-3.337821e+01	-8.496408e+01
6.100000e-07	-4.700122e-06	-1.322697e-09	-3.321501e+01	-8.467838e+01
6.200000e-07	-4.676615e-06	-1.341161e-09	-3.304890e+01	-8.438761e+01
6.300000e-07	-4.652941e-06	-1.332153e-09	-3.288160e+01	-8.409275e+01
6.400000e-07	-4.629141e-06	-1.319974e-09	-3.271341e+01	-8.379477e+01
6.500000e-07	-4.605088e-06	-1.311803e-09	-3.254343e+01	-8.349458e+01
6.600000e-07	-4.580774e-06	-1.334571e-09	-3.237160e+01	-8.319307e+01
6.700000e-07	-4.556222e-06	-1.317283e-09	-3.219810e+01	-8.289104e+01
6.800000e-07	-4.531359e-06	-1.294049e-09	-3.202240e+01	-8.258929e+01
6.900000e-07	-4.505863e-06	-1.290968e-09	-3.184222e+01	-8.228851e+01
7.000000e-07	-4.479646e-06	-1.310111e-09	-3.165695e+01	-8.198934e+01
7.100000e-07	-4.452877e-06	-1.309903e-09	-3.146778e+01	-8.169235e+01
7.200000e-07	-4.425619e-06	-1.300383e-09	-3.127515e+01	-8.139803e+01
7.300000e-07	-4.398037e-06	-1.289720e-09	-3.108023e+01	-8.110677e+01
7.400000e-07	-4.370278e-06	-1.294547e-09	-3.088406e+01	-8.081893e+01
7.500000e-07	-4.342385e-06	-1.297670e-09	-3.068694e+01	-8.053473e+01
7.600000e-07	-4.314377e-06	-1.280749e-09	-3.048902e+01	-8.025436e+01
7.700000e-07	-4.286188e-06	-1.265651e-09	-3.028981e+01	-7.997789e+01
7.800000e-07	-4.257702e-06	-1.267046e-09	-3.008851e+01	-7.970535e+01
7.900000e-07	-4.228852e-06	-1.277439e-09	-2.988462e+01	-7.943666e+01
8.000000e-07	-4.199592e-06	-1.270581e-09	-2.967785e+01	-7.917169e+01
8.100000e-07	-4.170005e-06	-1.263050e-09	-2.946877e+01	-7.891024e+01
8.200000e-07	-4.140208e-06	-1.256784e-09	-2.925819e+01	-7.865206e+01
8.300000e-07	-4.110191e-06	-1.262736e-09	-2.904607e+01	-7.839682e+01
8.400000e-07	-4.079877e-06	-1.254503e-09	-2.883185e+01	-7.814415e+01
8.500000e-07	-4.049260e-06	-1.244089e-09	-2.861548e+01	-7.789366e+01
8.600000e-07	-4.018323e-06	-1.232252e-09	-2.839685e+01	-7.764488e+01
8.700000e-07	-3.987086e-06	-1.241989e-09	-2.817611e+01	-7.739735e+01
8.800000e-07	-3.955703e-06	-1.240443e-09	-2.795433e+01	-7.715058e+01
8.900000e-07	-3.924162e-06	-1.231963e-09	-2.773143e+01	-7.690404e+01
9.000000e-07	-3.892427e-06	-1.210767e-09	-2.750716e+01	-7.665723e+01
9.100000e-07	-3.860520e-06	-1.207594e-09	-2.728169e+01	-7.640962e+01
9.200000e-07	-3.828381e-06	-1.208348e-09	-2.705456e+01	-7.616071e+01
9.300000e-07	-3.795988e-06	-1.210334e-09	-2.682564e+01	-7.590999e+01
9.400000e-07	-3.763226e-06	-1.206908e-09	-2.659412e+01	-7.565698e+01
9.500000e-07	-3.730128e-06	-1.215416e-09	-2.636022e+01	-7.540124e+01
9.600000e-07	-3.696737e-06	-1.219349e-09	-2.612425e+01	-7.514233e+01
9.700000e-07	-3.662969e-06	-1.208275e-09	-2.588562e+01	-7.487986e+01
9.800000e-07	-3.628642e-06	-1.180742e-09	-2.564304e+01	-7.461350e+01
9.900000e-07	-3.593738e-06	-1.162794e-09	-2.539638e+01	-7.434293e+01
1.000000e-06	-3.558529e-06	-1.157977e-09	-2.514756e+01	-7.406788e+01
1.010000e-06	-3.523129e-06	-1.165175e-09	-2.489740e+01	-7.378815e+01
1.020000e-06	-3.487555e-06	-1.170915e-09	-2.464600e+01	-7.350356e+01
1.030000e-06	-3.451769e-06	-1.175809e-09	-2.439310e+01	-7.321400e+01
1.040000e-06	-3.415836e-06	-1.178106e-09	-2.413917e+01	-7.291940e+01
1.050000e-06	-3.379800e-06	-1.171548e-09	-2.388451e+01	-7.261973e+01
1.060000e-06	-3.343570e-06	-1.152008e-09	-2.362848e+01	-7.231504e+01
1.070000e-06	-3.307120e-06	-1.125133e-09	-2.337089e+01	-7.200538e+01
1.080000e-06	-3.270415e-06	-1.108747e-09	-2.311150e+01	-7.169087e+01
1.090000e-06	-3.233449e-06	-1.106555e-09	-2.285027e+01	-7.137167e+01
1.100000e-06	-3.196272e-06	-1.115039e-09	-2.258755e+01	-7.104796e+01
1.110000e-06	-3.158865e-06	-1.118515e-09	-2.232320e+01	-7.071995e+01
1.120000e-06	-3.121236e-06	-1.121760e-09	-2.205728e+01	-7.038790e+01
1.130000e-06	-3.083391e-06	-1.119095e-09	-2.178984e+01	-7.005207e+01
1.140000e-06	-3.045313e-06	-1.111589e-09	-2.152075e+01	-6.971274e+01
1.150000e-06	-3.007061e-06	-1.092024e-09	-2.125042e+01	-6.937021e+01
1.160000e-06	-2.968680e-06	-1.073105e-09	-2.097919e+01	-6.902478e+01
1.170000e-06	-2.930106e-06	-1.059214e-09	-2.070660e+01	-6.867675e+01
1.180000e-06	-2.891247e-06	-1.056427e-09	-2.043199e+01	-6.832643e+01
1.190000e-06	-2.852078e-06	-1.054373e-09	-2.015518e+01	-6.797409e+01
1.200000e-06	-2.812772e-06	-1.056455e-09	-1.987742e+01	-6.762001e+01
1.210000e-06	-2.773334e-06	-1.060323e-09	-1.959871e+01	-6.726444e+01
1.220000e-06	-2.733713e-06	-1.064129e-09	-1.931872e+01	-6.690763e+01
1.230000e-06	-2.693997e-06	-1.055573e-09	-1.903805e+01	-6.654977e+01
1.240000e-06	-2.654110e-06	-1.041329e-09	-1.875618e+01	-6.619103e+01
1.250000e-06	-2.614160e-06	-1.025770e-09	-1.847386e+01	-6.583156e+01
1.260000e-06	-2.574150e-06	-1.017171e-09	-1.819111e+01	-6.547146e+01
1.270000e-06	-2.533903e-06	-1.009551e-09	-1.790669e+01	-6.511079e+01
1.280000e-06	-2.493559e-06	-1.004425e-09	-1.762159e+01	-6.474957e+01
1.290000e-06	-2.453063e-06	-1.001668e-09	-1.733541e+01	-6.438779e+01
1.300000e-06	-2.412396e-06	-1.001961e-09	-1.704802e+01	-6.402539e+01
1.310000e-06	-2.371580e-06	-9.985398e-10	-1.675958e+01	-6.366226e+01
1.320000e-06	-2.330477e-06	-9.893440e-10	-1.646911e+01	-6.329827e+01
1.330000e-06	-2.289105e-06	-9.783080e-10	-1.617675e+01	-6.293322e+01
1.340000e-06	-2.247423e-06	-9.713750e-10	-1.588218e+01	-6.256690e+01
1.350000e-06	-2.205370e-06	-9.676098e-10	-1.558500e+01	-6.219906e+01
1.360000e-06	-2.162972e-06	-9.602594e-10	-1.528538e+01	-6.182939e+01
1.370000e-06	-2.120273e-06	-9.511820e-10	-1.498364e+01	-6.145757e+01
1.380000e-06	-2.077381e-06	-9.456947e-10	-1.468052e+01	-6.108325e+01
1.390000e-06	-2.034315e-06	-9.442903e-10	-1.437618e+01	-6.070606e+01
1.400000e-06	-1.991030e-06	-9.406010e-10	-1.407030e+01	-6.032559e+01
1.410000e-06	-1.947588e-06	-9.333587e-10	-1.376330e+01	-5.994143e+01
1.420000e-06	-1.904042e-06	-9.253743e-10	-1.345557e+01	-5.955314e+01
1.430000e-06	-1.860387e-06	-9.226051e-10	-1.314706e+01	-5.916029e+01
1.440000e-06	-1.816655e-06	-9.183934e-10	-1.283801e+01	-5.876242e+01
1.450000e-06	-1.772821e-06	-9.102507e-10	-1.252825e+01	-5.835909e+01
1.460000e-06	-1.728847e-06	-8.996706e-10	-1.221749e+01	-5.794984e+01
1.470000e-06	-1.684873e-06	-8.954887e-10	-1.190673e+01	-5.753423e+01
1.480000e-06	-1.640879e-06	-8.920219e-10	-1.159583e+01	-5.711181e+01
1.490000e-06	-1.596781e-06	-8.887223e-10	-1.128420e+01	-5.668216e+01
1.500000e-06	-1.552609e-06	-8.831170e-10	-1.097204e+01	-5.624484e+01
1.510000e-06	-1.508404e-06	-8.787465e-10	-1.065965e+01	-5.579946e+01
1.520000e-06	-1.464117e-06	-8.713081e-10	-1.034668e+01	-5.534562e+01
1.530000e-06	-1.419682e-06	-8.572401e-10	-1.003267e+01	-5.488294e+01
1.540000e-06	-1.375139e-06	-8.406950e-10	-9.717889e+00	-5.441107e+01
1.550000e-06	-1.330517e-06	-8.288774e-10	-9.402556e+00	-5.392965e+01
1.560000e-06	-1.285785e-06	-8.205820e-10	-9.086437e+00	-5.343835e+01
1.570000e-06	-1.240967e-06	-8.183391e-10	-8.769715e+00	-5.293687e+01
1.580000e-06	-1.196118e-06	-8.141807e-10	-8.452778e+00	-5.242489e+01
1.590000e-06	-1.151097e-06	-8.080014e-10	-8.134621e+00	-5.190213e+01
1.600000e-06	-1.105813e-06	-8.016692e-10	-7.814608e+00	-5.136831e+01
1.610000e-06	-1.060475e-06	-7.916680e-10	-7.494212e+00	-5.082316e+01
1.620000e-06	-1.015140e-06	-7.761018e-10	-7.173832e+00	-5.026639e+01
1.630000e-06	-9.697518e-07	-7.600079e-10	-6.853082e+00	-4.969776e+01
1.640000e-06	-9.242609e-07	-7.478104e-10	-6.531605e+00	-4.911698e+01
1.650000e-06	-8.786027e-07	-7.417737e-10	-6.208946e+00	-4.852379e+01
1.660000e-06	-8.329586e-07	-7.358778e-10	-5.886387e+00	-4.791788e+01
1.670000e-06	-7.873917e-07	-7.274946e-10	-5.564372e+00	-4.729898e+01
1.680000e-06	-7.417806e-07	-7.193466e-10	-5.242046e+00	-4.666675e+01
1.690000e-06	-6.960324e-07	-7.102072e-10	-4.918751e+00	-4.602088e+01
1.700000e-06	-6.502008e-07	-6.978526e-10	-4.594866e+00	-4.536100e+01
1.710000e-06	-6.043776e-07	-6.837791e-10	-4.271041e+00	-4.468673e+01
1.720000e-06	-5.585131e-07	-6.729472e-10	-3.946924e+00	-4.399765e+01
1.730000e-06	-5.125970e-07	-6.634617e-10	-3.622442e+00	-4.329334e+01
1.740000e-06	-4.666464e-07	-6.553414e-10	-3.297716e+00	-4.257331e+01
1.750000e-06	-4.206556e-07	-6.437696e-10	-2.972706e+00	-4.183706e+01
1.760000e-06	-3.746687e-07	-6.303584e-10	-2.647724e+00	-4.108404e+01
1.770000e-06	-3.286871e-07	-6.146834e-10	-2.322780e+00	-4.031369e+01
1.780000e-06	-2.826829e-07	-5.999216e-10	-1.997675e+00	-3.952538e+01
1.790000e-06	-2.367092e-07	-5.866217e-10	-1.672786e+00	-3.871848e+01
1.800000e-06	-1.906888e-07	-5.733634e-10	-1.347568e+00	-3.789231e+01
1.810000e-06	-1.446324e-07	-5.582279e-10	-1.022095e+00	-3.704617e+01
1.820000e-06	-9.855248e-08	-5.474854e-10	-6.964548e-01	-3.617933e+01
1.830000e-06	-5.242833e-08	-5.372147e-10	-3.705027e-01	-3.529104e+01
1.840000e-06	-6.337427e-09	-5.243973e-10	-4.478559e-02	-3.438053e+01
1.850000e-06	3.974669e-08	-5.108518e-10	2.808835e-01	-3.344703e+01
1.860000e-06	8.581042e-08	-4.968228e-10	6.064087e-01	-3.248974e+01
1.870000e-06	1.318567e-07	-4.829056e-10	9.318106e-01	-3.150789e+01
1.880000e-06	1.779205e-07	-4.685047e-10	1.257336e+00	-3.050069e+01
1.890000e-06	2.239155e-07	-4.514949e-10	1.582376e+00	-2.946738e+01
1.900000e-06	2.698933e-07	-4.331076e-10	1.907293e+00	-2.840723e+01
1.910000e-06	3.158948e-07	-4.131958e-10	2.232379e+00	-2.731951e+01
1.920000e-06	3.618214e-07	-3.931271e-10	2.556935e+00	-2.620357e+01
1.930000e-06	4.076904e-07	-3.741012e-10	2.881084e+00	-2.505877e+01
1.940000e-06	4.536011e-07	-3.560201e-10	3.205527e+00	-2.388454e+01
1.950000e-06	4.995746e-07	-3.373906e-10	3.530415e+00	-2.268039e+01
1.960000e-06	5.454697e-07	-3.182385e-10	3.854748e+00	-2.144587e+01
1.970000e-06	5.912199e-07	-2.981515e-10	4.178058e+00	-2.018065e+01
1.980000e-06	6.369827e-07	-2.768936e-10	4.501456e+00	-1.888445e+01
1.990000e-06	6.827439e-07	-2.543218e-10	4.824843e+00	-1.755711e+01
2.000000e-06	7.284706e-07	-2.313332e-10	5.147987e+00	-1.619857e+01
2.010000e-06	7.742249e-07	-2.097806e-10	5.471325e+00	-1.480888e+01
2.020000e-06	8.198481e-07	-1.885076e-10	5.793737e+00	-1.338821e+01
2.030000e-06	8.653626e-07	-1.668048e-10	6.115381e+00	-1.193683e+01
2.040000e-06	9.108557e-07	-1.447652e-10	6.436873e+00	-1.045515e+01
2.050000e-06	9.562241e-07	-1.225903e-10	6.757484e+00	-8.943726e+00
2.060000e-06	1.001533e-06	-9.683920e-11	7.077677e+00	-7.403214e+00
2.070000e-06	1.046794e-06	-6.874075e-11	7.397528e+00	-5.834420e+00
2.080000e-06	1.091886e-06	-4.269667e-11	7.716183e+00	-4.238278e+00
2.090000e-06	1.136848e-06	-2.184123e-11	8.033927e+00	-2.615856e+00
2.100000e-06	1.181723e-06	-8.258601e-13	8.351048e+00	-9.683527e-01
2.110000e-06	1.226470e-06	2.324179e-11	8.667271e+00	7.029061e-01
2.120000e-06	1.271195e-06	4.856141e-11	8.983337e+00	2.396470e+00
2.130000e-06	1.315879e-06	7.170947e-11	9.299107e+00	4.110768e+00
2.140000e-06	1.360431e-06	9.523637e-11	9.613953e+00	5.844116e+00
2.150000e-06	1.404941e-06	1.225673e-10	9.928495e+00	7.594725e+00
2.160000e-06	1.449369e-06	1.505410e-10	1.024246e+01	9.360704e+00
2.170000e-06	1.493692e-06	1.751376e-10	1.055568e+01	1.114007e+01
2.180000e-06	1.537931e-06	1.979994e-10	1.086831e+01	1.293077e+01
2.190000e-06	1.582092e-06	2.236357e-10	1.118039e+01	1.473067e+01
2.200000e-06	1.626159e-06	2.548430e-10	1.149181e+01	1.653757e+01
2.210000e-06	1.670174e-06	2.848455e-10	1.180285e+01	1.834923e+01
2.220000e-06	1.714133e-06	3.117565e-10	1.211351e+01	2.016338e+01
2.230000e-06	1.758017e-06	3.383877e-10	1.242363e+01	2.197772e+01
2.240000e-06	1.801872e-06	3.671915e-10	1.273355e+01	2.378993e+01
2.250000e-06	1.845683e-06	3.956394e-10	1.304315e+01	2.559769e+01
2.260000e-06	1.889401e-06	4.203074e-10	1.335210e+01	2.739872e+01
2.270000e-06	1.933013e-06	4.462304e-10	1.366030e+01	2.919072e+01
2.280000e-06	1.976493e-06	4.780627e-10	1.396756e+01	3.097148e+01
2.290000e-06	2.019849e-06	5.127462e-10	1.427395e+01	3.273879e+01
2.300000e-06	2.063035e-06	5.413076e-10	1.457914e+01	3.449053e+01
2.310000e-06	2.105969e-06	5.634540e-10	1.488255e+01	3.622466e+01
2.320000e-06	2.148732e-06	5.867922e-10	1.518475e+01	3.793919e+01
2.330000e-06	2.191224e-06	6.120615e-10	1.548504e+01	3.963226e+01
2.340000e-06	2.233313e-06	6.334835e-10	1.578247e+01	4.130208e+01
2.350000e-06	2.275006e-06	6.544114e-10	1.607711e+01	4.294700e+01
2.360000e-06	2.316386e-06	6.810361e-10	1.636953e+01	4.456545e+01
2.370000e-06	2.357555e-06	7.117987e-10	1.666046e+01	4.615602e+01
2.380000e-06	2.398474e-06	7.405210e-10	1.694964e+01	4.771740e+01
2.390000e-06	2.439075e-06	7.667039e-10	1.723656e+01	4.924843e+01
2.400000e-06	2.479395e-06	7.887060e-10	1.752149e+01	5.074807e+01
2.410000e-06	2.519594e-06	8.079628e-10	1.780557e+01	5.221543e+01
2.420000e-06	2.559749e-06	8.300242e-10	1.808934e+01	5.364975e+01
2.430000e-06	2.599791e-06	8.538054e-10	1.837231e+01	5.505040e+01
2.440000e-06	2.639718e-06	8.779768e-10	1.865447e+01	5.641689e+01
2.450000e-06	2.679565e-06	9.032600e-10	1.893606e+01	5.774888e+01
2.460000e-06	2.719340e-06	9.286538e-10	1.921714e+01	5.904612e+01
2.470000e-06	2.758993e-06	9.498893e-10	1.949736e+01	6.030852e+01
2.480000e-06	2.798468e-06	9.660041e-10	1.977633e+01	6.153608e+01
2.490000e-06	2.837765e-06	9.832972e-10	2.005404e+01	6.272895e+01
2.500000e-06	2.876943e-06	1.001619e-09	2.033090e+01	6.388734e+01
2.510000e-06	2.915948e-06	1.018927e-09	2.060655e+01	6.501158e+01
2.520000e-06	2.954570e-06	1.037968e-09	2.087948e+01	6.610209e+01
2.530000e-06	2.992859e-06	1.060321e-09	2.115006e+01	6.715938e+01
2.540000e-06	3.030942e-06	1.081897e-09	2.141919e+01	6.818400e+01
2.550000e-06	3.068905e-06	1.099768e-09	2.168747e+01	6.917659e+01
2.560000e-06	3.106709e-06	1.114028e-09	2.195462e+01	7.013783e+01
2.570000e-06	3.144320e-06	1.125023e-09	2.222041e+01	7.106845e+01
2.580000e-06	3.181770e-06	1.134177e-09	2.248506e+01	7.196920e+01
2.590000e-06	3.218997e-06	1.144073e-09	2.274814e+01	7.284087e+01
2.600000e-06	3.255956e-06	1.156783e-09	2.300932e+01	7.368426e+01
2.610000e-06	3.292688e-06	1.174748e-09	2.326891e+01	7.450018e+01
2.620000e-06	3.329226e-06	1.194036e-09	2.352711e+01	7.528942e+01
2.630000e-06	3.365560e-06	1.208819e-09	2.378388e+01	7.605278e+01
2.640000e-06	3.401697e-06	1.219663e-09	2.403925e+01	7.679104e+01
2.650000e-06	3.437650e-06	1.227610e-09	2.429333e+01	7.750496e+01
2.660000e-06	3.473472e-06	1.229528e-09	2.454648e+01	7.819526e+01
2.670000e-06	3.509172e-06	1.229584e-09	2.479876e+01	7.886263e+01
2.680000e-06	3.544721e-06	1.235483e-09	2.504999e+01	7.950774e+01
2.690000e-06	3.579964e-06	1.246640e-09	2.529904e+01	8.013121e+01
2.700000e-06	3.614856e-06	1.264123e-09	2.554562e+01	8.073359e+01
2.710000e-06	3.649412e-06	1.283204e-09	2.578982e+01	8.131543e+01
2.720000e-06	3.683618e-06	1.295912e-09	2.603155e+01	8.187721e+01
2.730000e-06	3.717214e-06	1.304478e-09	2.626897e+01	8.241937e+01
2.740000e-06	3.750155e-06	1.311021e-09	2.650176e+01	8.294231e+01
2.750000e-06	3.782759e-06	1.314030e-09	2.673216e+01	8.344638e+01
2.760000e-06	3.815130e-06	1.314505e-09	2.696092e+01	8.393189e+01
2.770000e-06	3.847313e-06	1.318060e-09	2.718835e+01	8.439912e+01
2.780000e-06	3.879320e-06	1.324874e-09	2.741454e+01	8.484833e+01
2.790000e-06	3.911205e-06	1.333241e-09	2.763987e+01	8.527972e+01
2.800000e-06	3.942920e-06	1.338692e-09	2.786399e+01	8.569349e+01
2.810000e-06	3.974418e-06	1.339564e-09	2.808658e+01	8.608982e+01
2.820000e-06	4.005583e-06	1.342509e-09	2.830682e+01	8.646886e+01
2.830000e-06	4.036439e-06	1.346789e-09	2.852488e+01	8.683076e+01
2.840000e-06	4.067030e-06	1.351190e-09	2.874106e+01	8.717569e+01
2.850000e-06	4.097309e-06	1.354608e-09	2.895504e+01	8.750379e+01
2.860000e-06	4.127374e-06	1.359314e-09	2.916750e+01	8.781522e+01
2.870000e-06	4.157220e-06	1.365183e-09	2.937842e+01	8.811016e+01
2.880000e-06	4.186802e-06	1.367846e-09	2.958747e+01	8.838881e+01
2.890000e-06	4.216051e-06	1.365658e-09	2.979417e+01	8.865138e+01
2.900000e-06	4.245024e-06	1.364405e-09	2.999891e+01	8.889813e+01
