# Temperatura_=_19.9
# Concentracion g/m^3_=_4090.0
# C_Vs_to_Am_M_A/Vsm_=_65563218390.804596
# pendiente_HvsI_1/m_=_3716.3
# ordenada_HvsI_A/m_=_1297.0
# frecuencia_Hz_=_135086.49527432586

Tiempo_(s)	Campo_(V.s)	Magnetizacion_(V.s)	Campo_(kA/m)	Magnetizacion_(A/m)
0.000000e+00	-5.391834e-06	-1.211932e-09	-3.838130e+01	-8.291785e+01
1.000000e-08	-5.391830e-06	-1.208753e-09	-3.838127e+01	-8.278609e+01
2.000000e-08	-5.391586e-06	-1.202697e-09	-3.837953e+01	-8.265919e+01
3.000000e-08	-5.391120e-06	-1.195110e-09	-3.837621e+01	-8.253774e+01
4.000000e-08	-5.390315e-06	-1.192196e-09	-3.837048e+01	-8.242228e+01
5.000000e-08	-5.388963e-06	-1.196581e-09	-3.836085e+01	-8.231327e+01
6.000000e-08	-5.386982e-06	-1.210524e-09	-3.834675e+01	-8.221114e+01
7.000000e-08	-5.384372e-06	-1.218330e-09	-3.832818e+01	-8.211626e+01
8.000000e-08	-5.381125e-06	-1.198453e-09	-3.830507e+01	-8.202891e+01
9.000000e-08	-5.377281e-06	-1.161767e-09	-3.827770e+01	-8.194935e+01
1.000000e-07	-5.373024e-06	-1.182381e-09	-3.824740e+01	-8.187770e+01
1.100000e-07	-5.368618e-06	-1.247284e-09	-3.821603e+01	-8.181408e+01
1.200000e-07	-5.364072e-06	-1.202574e-09	-3.818367e+01	-8.175847e+01
1.300000e-07	-5.359155e-06	-1.123694e-09	-3.814867e+01	-8.171082e+01
1.400000e-07	-5.353764e-06	-1.172218e-09	-3.811029e+01	-8.167099e+01
1.500000e-07	-5.348080e-06	-1.277220e-09	-3.806983e+01	-8.163876e+01
1.600000e-07	-5.342154e-06	-1.267954e-09	-3.802765e+01	-8.161385e+01
1.700000e-07	-5.335779e-06	-1.099260e-09	-3.798227e+01	-8.159589e+01
1.800000e-07	-5.329027e-06	-1.137024e-09	-3.793421e+01	-8.158445e+01
1.900000e-07	-5.321992e-06	-1.253249e-09	-3.788413e+01	-8.157906e+01
2.000000e-07	-5.314625e-06	-1.269534e-09	-3.783169e+01	-8.157916e+01
2.100000e-07	-5.306933e-06	-1.156937e-09	-3.777694e+01	-8.158414e+01
2.200000e-07	-5.298988e-06	-1.216677e-09	-3.772038e+01	-8.159334e+01
2.300000e-07	-5.290829e-06	-1.307541e-09	-3.766230e+01	-8.160607e+01
2.400000e-07	-5.282325e-06	-1.263069e-09	-3.760177e+01	-8.162159e+01
2.500000e-07	-5.273178e-06	-1.220263e-09	-3.753665e+01	-8.163913e+01
2.600000e-07	-5.263351e-06	-1.307537e-09	-3.746670e+01	-8.165789e+01
2.700000e-07	-5.252926e-06	-1.347202e-09	-3.739249e+01	-8.167705e+01
2.800000e-07	-5.242021e-06	-1.270422e-09	-3.731486e+01	-8.169580e+01
2.900000e-07	-5.230698e-06	-1.283498e-09	-3.723426e+01	-8.171331e+01
3.000000e-07	-5.218880e-06	-1.351069e-09	-3.715014e+01	-8.172874e+01
3.100000e-07	-5.206735e-06	-1.326785e-09	-3.706368e+01	-8.174129e+01
3.200000e-07	-5.194301e-06	-1.255952e-09	-3.697517e+01	-8.175016e+01
3.300000e-07	-5.181408e-06	-1.319488e-09	-3.688340e+01	-8.175457e+01
3.400000e-07	-5.168017e-06	-1.348873e-09	-3.678807e+01	-8.175379e+01
3.500000e-07	-5.154267e-06	-1.318254e-09	-3.669019e+01	-8.174710e+01
3.600000e-07	-5.140258e-06	-1.302073e-09	-3.659047e+01	-8.173386e+01
3.700000e-07	-5.125860e-06	-1.342928e-09	-3.648798e+01	-8.171344e+01
3.800000e-07	-5.110857e-06	-1.295626e-09	-3.638119e+01	-8.168528e+01
3.900000e-07	-5.095278e-06	-1.279141e-09	-3.627028e+01	-8.164888e+01
4.000000e-07	-5.079187e-06	-1.303804e-09	-3.615574e+01	-8.160380e+01
4.100000e-07	-5.062675e-06	-1.312869e-09	-3.603820e+01	-8.154965e+01
4.200000e-07	-5.045755e-06	-1.275635e-09	-3.591776e+01	-8.148614e+01
4.300000e-07	-5.028536e-06	-1.315896e-09	-3.579519e+01	-8.141300e+01
4.400000e-07	-5.011040e-06	-1.328919e-09	-3.567064e+01	-8.133007e+01
4.500000e-07	-4.993160e-06	-1.295638e-09	-3.554337e+01	-8.123724e+01
4.600000e-07	-4.975013e-06	-1.270884e-09	-3.541419e+01	-8.113447e+01
4.700000e-07	-4.956639e-06	-1.295513e-09	-3.528339e+01	-8.102180e+01
4.800000e-07	-4.937859e-06	-1.283788e-09	-3.514971e+01	-8.089932e+01
4.900000e-07	-4.918560e-06	-1.269874e-09	-3.501233e+01	-8.076719e+01
5.000000e-07	-4.898862e-06	-1.266837e-09	-3.487212e+01	-8.062564e+01
5.100000e-07	-4.878940e-06	-1.271649e-09	-3.473030e+01	-8.047496e+01
5.200000e-07	-4.858865e-06	-1.276488e-09	-3.458740e+01	-8.031547e+01
5.300000e-07	-4.838567e-06	-1.276980e-09	-3.444291e+01	-8.014756e+01
5.400000e-07	-4.818003e-06	-1.257091e-09	-3.429653e+01	-7.997167e+01
5.500000e-07	-4.797123e-06	-1.251196e-09	-3.414790e+01	-7.978827e+01
5.600000e-07	-4.775895e-06	-1.270890e-09	-3.399678e+01	-7.959786e+01
5.700000e-07	-4.754308e-06	-1.266270e-09	-3.384312e+01	-7.940097e+01
5.800000e-07	-4.732381e-06	-1.246602e-09	-3.368703e+01	-7.919818e+01
5.900000e-07	-4.710195e-06	-1.238770e-09	-3.352911e+01	-7.899004e+01
6.000000e-07	-4.687723e-06	-1.244577e-09	-3.336914e+01	-7.877715e+01
6.100000e-07	-4.664806e-06	-1.241850e-09	-3.320601e+01	-7.856009e+01
6.200000e-07	-4.641561e-06	-1.243417e-09	-3.304054e+01	-7.833947e+01
6.300000e-07	-4.618046e-06	-1.229157e-09	-3.287315e+01	-7.811585e+01
6.400000e-07	-4.594287e-06	-1.236735e-09	-3.270403e+01	-7.788982e+01
6.500000e-07	-4.570321e-06	-1.251306e-09	-3.253343e+01	-7.766193e+01
6.600000e-07	-4.546026e-06	-1.250293e-09	-3.236049e+01	-7.743270e+01
6.700000e-07	-4.521461e-06	-1.220663e-09	-3.218562e+01	-7.720264e+01
6.800000e-07	-4.496603e-06	-1.218009e-09	-3.200867e+01	-7.697223e+01
6.900000e-07	-4.471367e-06	-1.217266e-09	-3.182903e+01	-7.674190e+01
7.000000e-07	-4.445724e-06	-1.212870e-09	-3.164650e+01	-7.651205e+01
7.100000e-07	-4.419481e-06	-1.198786e-09	-3.145969e+01	-7.628304e+01
7.200000e-07	-4.392687e-06	-1.205787e-09	-3.126895e+01	-7.605518e+01
7.300000e-07	-4.365405e-06	-1.214343e-09	-3.107475e+01	-7.582873e+01
7.400000e-07	-4.337732e-06	-1.222943e-09	-3.087776e+01	-7.560393e+01
7.500000e-07	-4.309853e-06	-1.208860e-09	-3.067931e+01	-7.538094e+01
7.600000e-07	-4.281780e-06	-1.199103e-09	-3.047947e+01	-7.515988e+01
7.700000e-07	-4.253557e-06	-1.198089e-09	-3.027857e+01	-7.494084e+01
7.800000e-07	-4.225140e-06	-1.197749e-09	-3.007628e+01	-7.472384e+01
7.900000e-07	-4.196519e-06	-1.180987e-09	-2.987255e+01	-7.450887e+01
8.000000e-07	-4.167529e-06	-1.171920e-09	-2.966619e+01	-7.429588e+01
8.100000e-07	-4.138185e-06	-1.174202e-09	-2.945730e+01	-7.408477e+01
8.200000e-07	-4.108558e-06	-1.180705e-09	-2.924641e+01	-7.387539e+01
8.300000e-07	-4.078665e-06	-1.178953e-09	-2.903362e+01	-7.366758e+01
8.400000e-07	-4.048544e-06	-1.170050e-09	-2.881920e+01	-7.346113e+01
8.500000e-07	-4.018085e-06	-1.167941e-09	-2.860238e+01	-7.325580e+01
8.600000e-07	-3.987331e-06	-1.170129e-09	-2.838346e+01	-7.305135e+01
8.700000e-07	-3.956319e-06	-1.166127e-09	-2.816271e+01	-7.284748e+01
8.800000e-07	-3.925019e-06	-1.149822e-09	-2.793990e+01	-7.264391e+01
8.900000e-07	-3.893503e-06	-1.137497e-09	-2.771556e+01	-7.244031e+01
9.000000e-07	-3.861828e-06	-1.131635e-09	-2.749008e+01	-7.223639e+01
9.100000e-07	-3.829946e-06	-1.132127e-09	-2.726313e+01	-7.203181e+01
9.200000e-07	-3.797931e-06	-1.128996e-09	-2.703523e+01	-7.182625e+01
9.300000e-07	-3.765738e-06	-1.135190e-09	-2.680607e+01	-7.161940e+01
9.400000e-07	-3.733262e-06	-1.145087e-09	-2.657490e+01	-7.141093e+01
9.500000e-07	-3.700541e-06	-1.153022e-09	-2.634198e+01	-7.120056e+01
9.600000e-07	-3.667547e-06	-1.143056e-09	-2.610711e+01	-7.098800e+01
9.700000e-07	-3.634196e-06	-1.126435e-09	-2.586970e+01	-7.077297e+01
9.800000e-07	-3.600214e-06	-1.107630e-09	-2.562781e+01	-7.055523e+01
9.900000e-07	-3.565786e-06	-1.098041e-09	-2.538273e+01	-7.033454e+01
1.000000e-06	-3.531103e-06	-1.090825e-09	-2.513584e+01	-7.011071e+01
1.010000e-06	-3.496001e-06	-1.094922e-09	-2.488598e+01	-6.988356e+01
1.020000e-06	-3.460582e-06	-1.104084e-09	-2.463385e+01	-6.965293e+01
1.030000e-06	-3.424948e-06	-1.114953e-09	-2.438019e+01	-6.941869e+01
1.040000e-06	-3.389119e-06	-1.112621e-09	-2.412515e+01	-6.918076e+01
1.050000e-06	-3.353124e-06	-1.102500e-09	-2.386892e+01	-6.893906e+01
1.060000e-06	-3.316986e-06	-1.084499e-09	-2.361167e+01	-6.869356e+01
1.070000e-06	-3.280662e-06	-1.069747e-09	-2.335310e+01	-6.844422e+01
1.080000e-06	-3.244152e-06	-1.056317e-09	-2.309321e+01	-6.819107e+01
1.090000e-06	-3.207517e-06	-1.050452e-09	-2.283242e+01	-6.793414e+01
1.100000e-06	-3.170692e-06	-1.052942e-09	-2.257029e+01	-6.767348e+01
1.110000e-06	-3.133559e-06	-1.058716e-09	-2.230596e+01	-6.740917e+01
1.120000e-06	-3.096094e-06	-1.062858e-09	-2.203927e+01	-6.714131e+01
1.130000e-06	-3.058397e-06	-1.057875e-09	-2.177093e+01	-6.687000e+01
1.140000e-06	-3.020569e-06	-1.048673e-09	-2.150165e+01	-6.659536e+01
1.150000e-06	-2.982571e-06	-1.038603e-09	-2.123117e+01	-6.631753e+01
1.160000e-06	-2.944333e-06	-1.029862e-09	-2.095897e+01	-6.603664e+01
1.170000e-06	-2.905948e-06	-1.020621e-09	-2.068574e+01	-6.575284e+01
1.180000e-06	-2.867319e-06	-1.011705e-09	-2.041076e+01	-6.546627e+01
1.190000e-06	-2.828335e-06	-1.004124e-09	-2.013325e+01	-6.517708e+01
1.200000e-06	-2.789129e-06	-1.003653e-09	-1.985416e+01	-6.488540e+01
1.210000e-06	-2.749688e-06	-1.007373e-09	-1.957341e+01	-6.459137e+01
1.220000e-06	-2.710215e-06	-1.011544e-09	-1.929243e+01	-6.429510e+01
1.230000e-06	-2.670656e-06	-1.010643e-09	-1.901083e+01	-6.399671e+01
1.240000e-06	-2.630833e-06	-1.007890e-09	-1.872735e+01	-6.369629e+01
1.250000e-06	-2.590935e-06	-1.000911e-09	-1.844334e+01	-6.339392e+01
1.260000e-06	-2.550998e-06	-9.929118e-10	-1.815906e+01	-6.308965e+01
1.270000e-06	-2.510918e-06	-9.789940e-10	-1.787375e+01	-6.278353e+01
1.280000e-06	-2.470709e-06	-9.699482e-10	-1.758752e+01	-6.247557e+01
1.290000e-06	-2.430388e-06	-9.662522e-10	-1.730050e+01	-6.216577e+01
1.300000e-06	-2.389932e-06	-9.682885e-10	-1.701252e+01	-6.185410e+01
1.310000e-06	-2.349352e-06	-9.666846e-10	-1.672366e+01	-6.154052e+01
1.320000e-06	-2.308635e-06	-9.633458e-10	-1.643381e+01	-6.122493e+01
1.330000e-06	-2.267742e-06	-9.614412e-10	-1.614272e+01	-6.090724e+01
1.340000e-06	-2.226539e-06	-9.602680e-10	-1.584942e+01	-6.058734e+01
1.350000e-06	-2.184980e-06	-9.538315e-10	-1.555358e+01	-6.026506e+01
1.360000e-06	-2.143284e-06	-9.412748e-10	-1.525678e+01	-5.994024e+01
1.370000e-06	-2.101328e-06	-9.298636e-10	-1.495811e+01	-5.961269e+01
1.380000e-06	-2.059063e-06	-9.238037e-10	-1.465725e+01	-5.928220e+01
1.390000e-06	-2.016640e-06	-9.204780e-10	-1.435527e+01	-5.894852e+01
1.400000e-06	-1.973887e-06	-9.152349e-10	-1.405094e+01	-5.861141e+01
1.410000e-06	-1.930827e-06	-9.091464e-10	-1.374442e+01	-5.827060e+01
1.420000e-06	-1.887513e-06	-9.044709e-10	-1.343609e+01	-5.792581e+01
1.430000e-06	-1.844035e-06	-9.014966e-10	-1.312660e+01	-5.757673e+01
1.440000e-06	-1.800561e-06	-8.970390e-10	-1.281713e+01	-5.722306e+01
1.450000e-06	-1.757030e-06	-8.884594e-10	-1.250726e+01	-5.686447e+01
1.460000e-06	-1.713320e-06	-8.790312e-10	-1.219612e+01	-5.650063e+01
1.470000e-06	-1.669442e-06	-8.709183e-10	-1.188378e+01	-5.613120e+01
1.480000e-06	-1.625471e-06	-8.627677e-10	-1.157077e+01	-5.575584e+01
1.490000e-06	-1.581415e-06	-8.585425e-10	-1.125716e+01	-5.537418e+01
1.500000e-06	-1.537285e-06	-8.548887e-10	-1.094303e+01	-5.498587e+01
1.510000e-06	-1.493111e-06	-8.513289e-10	-1.062858e+01	-5.459053e+01
1.520000e-06	-1.448915e-06	-8.456889e-10	-1.031397e+01	-5.418781e+01
1.530000e-06	-1.404696e-06	-8.370633e-10	-9.999206e+00	-5.377734e+01
1.540000e-06	-1.360414e-06	-8.267662e-10	-9.683987e+00	-5.335872e+01
1.550000e-06	-1.316059e-06	-8.156185e-10	-9.368251e+00	-5.293159e+01
1.560000e-06	-1.271639e-06	-8.043672e-10	-9.052050e+00	-5.249556e+01
1.570000e-06	-1.227160e-06	-7.970134e-10	-8.735430e+00	-5.205024e+01
1.580000e-06	-1.182556e-06	-7.901710e-10	-8.417920e+00	-5.159524e+01
1.590000e-06	-1.137850e-06	-7.845115e-10	-8.099683e+00	-5.113016e+01
1.600000e-06	-1.093144e-06	-7.793351e-10	-7.781452e+00	-5.065460e+01
1.610000e-06	-1.048345e-06	-7.718056e-10	-7.462550e+00	-5.016815e+01
1.620000e-06	-1.003451e-06	-7.620528e-10	-7.142978e+00	-4.967038e+01
1.630000e-06	-9.584908e-07	-7.529503e-10	-6.822932e+00	-4.916087e+01
1.640000e-06	-9.134004e-07	-7.431924e-10	-6.501960e+00	-4.863918e+01
1.650000e-06	-8.682213e-07	-7.348227e-10	-6.180357e+00	-4.810485e+01
1.660000e-06	-8.230296e-07	-7.263027e-10	-5.858663e+00	-4.755742e+01
1.670000e-06	-7.778104e-07	-7.200423e-10	-5.536774e+00	-4.699641e+01
1.680000e-06	-7.325081e-07	-7.142872e-10	-5.214294e+00	-4.642133e+01
1.690000e-06	-6.871374e-07	-7.043660e-10	-4.891327e+00	-4.583166e+01
1.700000e-06	-6.416857e-07	-6.909792e-10	-4.567783e+00	-4.522688e+01
1.710000e-06	-5.961384e-07	-6.799030e-10	-4.243558e+00	-4.460645e+01
1.720000e-06	-5.505698e-07	-6.725692e-10	-3.919183e+00	-4.396980e+01
1.730000e-06	-5.049610e-07	-6.651240e-10	-3.594520e+00	-4.331636e+01
1.740000e-06	-4.592748e-07	-6.550544e-10	-3.269307e+00	-4.264553e+01
1.750000e-06	-4.135416e-07	-6.447712e-10	-2.943759e+00	-4.195669e+01
1.760000e-06	-3.678282e-07	-6.350674e-10	-2.618352e+00	-4.124923e+01
1.770000e-06	-3.221680e-07	-6.219735e-10	-2.293324e+00	-4.052249e+01
1.780000e-06	-2.765515e-07	-6.051293e-10	-1.968608e+00	-3.977583e+01
1.790000e-06	-2.308976e-07	-5.896388e-10	-1.643624e+00	-3.900858e+01
1.800000e-06	-1.851782e-07	-5.785022e-10	-1.318175e+00	-3.822006e+01
1.810000e-06	-1.394501e-07	-5.644199e-10	-9.926632e-01	-3.740961e+01
1.820000e-06	-9.371345e-08	-5.500434e-10	-6.670909e-01	-3.657654e+01
1.830000e-06	-4.798991e-08	-5.371246e-10	-3.416119e-01	-3.572018e+01
1.840000e-06	-2.276555e-09	-5.257632e-10	-1.620546e-02	-3.483986e+01
1.850000e-06	4.341379e-08	-5.173083e-10	3.090372e-01	-3.393492e+01
1.860000e-06	8.915747e-08	-5.077941e-10	6.346596e-01	-3.300472e+01
1.870000e-06	1.349580e-07	-4.933650e-10	9.606866e-01	-3.204862e+01
1.880000e-06	1.807628e-07	-4.775425e-10	1.286744e+00	-3.106604e+01
1.890000e-06	2.266079e-07	-4.608426e-10	1.613088e+00	-3.005641e+01
1.900000e-06	2.725057e-07	-4.433423e-10	1.939808e+00	-2.901920e+01
1.910000e-06	3.182794e-07	-4.238246e-10	2.265644e+00	-2.795392e+01
1.920000e-06	3.639648e-07	-4.067252e-10	2.590851e+00	-2.686012e+01
1.930000e-06	4.096278e-07	-3.907486e-10	2.915899e+00	-2.573744e+01
1.940000e-06	4.551764e-07	-3.744262e-10	3.240133e+00	-2.458553e+01
1.950000e-06	5.006451e-07	-3.540982e-10	3.563798e+00	-2.340414e+01
1.960000e-06	5.461096e-07	-3.317180e-10	3.887433e+00	-2.219308e+01
1.970000e-06	5.916102e-07	-3.125211e-10	4.211325e+00	-2.095223e+01
1.980000e-06	6.370556e-07	-2.950447e-10	4.534824e+00	-1.968157e+01
1.990000e-06	6.823635e-07	-2.771456e-10	4.857344e+00	-1.838114e+01
2.000000e-06	7.275919e-07	-2.549730e-10	5.179299e+00	-1.705110e+01
2.010000e-06	7.728294e-07	-2.327067e-10	5.501318e+00	-1.569168e+01
2.020000e-06	8.180060e-07	-2.099119e-10	5.822904e+00	-1.430321e+01
2.030000e-06	8.631639e-07	-1.853190e-10	6.144356e+00	-1.288613e+01
2.040000e-06	9.082810e-07	-1.598267e-10	6.465518e+00	-1.144098e+01
2.050000e-06	9.533069e-07	-1.367656e-10	6.786031e+00	-9.968407e+00
2.060000e-06	9.982416e-07	-1.180346e-10	7.105894e+00	-8.469150e+00
2.070000e-06	1.043115e-06	-9.893131e-11	7.425318e+00	-6.944067e+00
2.080000e-06	1.087954e-06	-7.661531e-11	7.744501e+00	-5.394114e+00
2.090000e-06	1.132616e-06	-5.222943e-11	8.062429e+00	-3.820354e+00
2.100000e-06	1.177159e-06	-2.709408e-11	8.379501e+00	-2.223951e+00
2.110000e-06	1.221657e-06	-1.115076e-12	8.696259e+00	-6.061681e-01
2.120000e-06	1.266075e-06	3.045951e-11	9.012444e+00	1.031634e+00
2.130000e-06	1.310436e-06	6.011583e-11	9.328226e+00	2.688005e+00
2.140000e-06	1.354712e-06	8.191335e-11	9.643394e+00	4.361404e+00
2.150000e-06	1.398938e-06	9.906478e-11	9.958220e+00	6.050210e+00
2.160000e-06	1.443131e-06	1.173276e-10	1.027280e+01	7.752725e+00
2.170000e-06	1.487284e-06	1.421700e-10	1.058710e+01	9.467181e+00
2.180000e-06	1.531419e-06	1.716575e-10	1.090127e+01	1.119175e+01
2.190000e-06	1.575524e-06	2.002361e-10	1.121523e+01	1.292454e+01
2.200000e-06	1.619562e-06	2.293240e-10	1.152871e+01	1.466363e+01
2.210000e-06	1.663546e-06	2.571857e-10	1.184180e+01	1.640704e+01
2.220000e-06	1.707493e-06	2.812765e-10	1.215464e+01	1.815278e+01
2.230000e-06	1.751286e-06	3.026516e-10	1.246638e+01	1.989882e+01
2.240000e-06	1.795020e-06	3.260422e-10	1.277769e+01	2.164313e+01
2.250000e-06	1.838720e-06	3.552256e-10	1.308877e+01	2.338367e+01
2.260000e-06	1.882166e-06	3.889723e-10	1.339803e+01	2.511843e+01
2.270000e-06	1.925288e-06	4.244172e-10	1.370499e+01	2.684538e+01
2.280000e-06	1.968149e-06	4.580582e-10	1.401010e+01	2.856254e+01
2.290000e-06	2.010834e-06	4.871205e-10	1.431395e+01	3.026796e+01
2.300000e-06	2.053386e-06	5.063979e-10	1.461684e+01	3.195973e+01
2.310000e-06	2.095751e-06	5.200086e-10	1.491842e+01	3.363600e+01
2.320000e-06	2.137634e-06	5.390075e-10	1.521656e+01	3.529496e+01
2.330000e-06	2.179173e-06	5.648856e-10	1.551225e+01	3.693489e+01
2.340000e-06	2.220574e-06	5.931535e-10	1.580696e+01	3.855413e+01
2.350000e-06	2.261737e-06	6.237073e-10	1.609998e+01	4.015111e+01
2.360000e-06	2.302784e-06	6.549171e-10	1.639216e+01	4.172433e+01
2.370000e-06	2.343589e-06	6.840641e-10	1.668263e+01	4.327240e+01
2.380000e-06	2.384113e-06	7.061339e-10	1.697110e+01	4.479402e+01
2.390000e-06	2.424466e-06	7.199175e-10	1.725835e+01	4.628799e+01
2.400000e-06	2.464664e-06	7.309766e-10	1.754449e+01	4.775320e+01
2.410000e-06	2.504819e-06	7.477998e-10	1.783033e+01	4.918867e+01
2.420000e-06	2.544932e-06	7.730864e-10	1.811587e+01	5.059352e+01
2.430000e-06	2.584943e-06	8.043706e-10	1.840069e+01	5.196695e+01
2.440000e-06	2.624830e-06	8.341858e-10	1.868462e+01	5.330832e+01
2.450000e-06	2.664610e-06	8.595026e-10	1.896779e+01	5.461705e+01
2.460000e-06	2.704216e-06	8.819824e-10	1.924973e+01	5.589268e+01
2.470000e-06	2.743565e-06	8.971926e-10	1.952982e+01	5.713488e+01
2.480000e-06	2.782671e-06	9.033067e-10	1.980819e+01	5.834338e+01
2.490000e-06	2.821649e-06	9.111579e-10	2.008566e+01	5.951804e+01
2.500000e-06	2.860455e-06	9.289604e-10	2.036189e+01	6.065879e+01
2.510000e-06	2.898976e-06	9.537852e-10	2.063611e+01	6.176568e+01
2.520000e-06	2.937267e-06	9.805335e-10	2.090868e+01	6.283882e+01
2.530000e-06	2.975412e-06	1.004561e-09	2.118020e+01	6.387840e+01
2.540000e-06	3.013418e-06	1.024382e-09	2.145075e+01	6.488471e+01
2.550000e-06	3.051232e-06	1.034656e-09	2.171992e+01	6.585808e+01
2.560000e-06	3.088840e-06	1.034033e-09	2.198763e+01	6.679892e+01
2.570000e-06	3.126161e-06	1.032767e-09	2.225330e+01	6.770768e+01
2.580000e-06	3.163188e-06	1.040013e-09	2.251687e+01	6.858489e+01
2.590000e-06	3.200038e-06	1.057406e-09	2.277919e+01	6.943109e+01
2.600000e-06	3.236725e-06	1.080861e-09	2.304034e+01	7.024688e+01
2.610000e-06	3.273161e-06	1.102626e-09	2.329971e+01	7.103289e+01
2.620000e-06	3.309452e-06	1.118539e-09	2.355804e+01	7.178976e+01
2.630000e-06	3.345656e-06	1.129618e-09	2.381576e+01	7.251818e+01
2.640000e-06	3.381708e-06	1.134589e-09	2.407239e+01	7.321882e+01
2.650000e-06	3.417597e-06	1.133039e-09	2.432786e+01	7.389239e+01
2.660000e-06	3.453277e-06	1.131244e-09	2.458185e+01	7.453958e+01
2.670000e-06	3.488683e-06	1.135533e-09	2.483388e+01	7.516111e+01
2.680000e-06	3.523780e-06	1.147206e-09	2.508372e+01	7.575765e+01
2.690000e-06	3.558431e-06	1.162495e-09	2.533038e+01	7.632992e+01
2.700000e-06	3.592640e-06	1.178600e-09	2.557389e+01	7.687859e+01
2.710000e-06	3.626398e-06	1.192233e-09	2.581419e+01	7.740433e+01
2.720000e-06	3.659650e-06	1.198712e-09	2.605089e+01	7.790779e+01
2.730000e-06	3.692575e-06	1.199977e-09	2.628527e+01	7.838962e+01
2.740000e-06	3.725297e-06	1.199815e-09	2.651819e+01	7.885043e+01
2.750000e-06	3.757807e-06	1.201742e-09	2.674962e+01	7.929083e+01
2.760000e-06	3.790087e-06	1.206683e-09	2.697940e+01	7.971139e+01
2.770000e-06	3.822238e-06	1.214257e-09	2.720827e+01	8.011270e+01
2.780000e-06	3.854267e-06	1.224751e-09	2.743626e+01	8.049528e+01
2.790000e-06	3.886087e-06	1.235025e-09	2.766277e+01	8.085967e+01
2.800000e-06	3.917681e-06	1.240078e-09	2.788766e+01	8.120639e+01
2.810000e-06	3.948931e-06	1.238963e-09	2.811011e+01	8.153594e+01
2.820000e-06	3.979880e-06	1.236245e-09	2.833043e+01	8.184880e+01
2.830000e-06	4.010581e-06	1.237989e-09	2.854896e+01	8.214544e+01
2.840000e-06	4.040937e-06	1.243807e-09	2.876505e+01	8.242634e+01
2.850000e-06	4.071020e-06	1.252010e-09	2.897920e+01	8.269195e+01
2.860000e-06	4.100952e-06	1.259537e-09	2.919226e+01	8.294272e+01
2.870000e-06	4.130680e-06	1.265778e-09	2.940388e+01	8.317911e+01
2.880000e-06	4.160050e-06	1.269284e-09	2.961295e+01	8.340157e+01
2.890000e-06	4.188992e-06	1.265475e-09	2.981897e+01	8.361054e+01
2.900000e-06	4.217707e-06	1.260395e-09	3.002338e+01	8.380649e+01
