# Temperatura_=_-2.1
# Concentracion g/m^3_=_4090.0
# C_Vs_to_Am_M_A/Vsm_=_65563218390.804596
# pendiente_HvsI_1/m_=_3716.3
# ordenada_HvsI_A/m_=_1297.0
# frecuencia_Hz_=_135068.47083455068

Tiempo_(s)	Campo_(V.s)	Magnetizacion_(V.s)	Campo_(kA/m)	Magnetizacion_(A/m)
0.000000e+00	-5.419760e-06	-1.918877e-09	-3.839529e+01	-1.272924e+02
1.000000e-08	-5.419870e-06	-1.920201e-09	-3.839607e+01	-1.271983e+02
2.000000e-08	-5.419786e-06	-1.917788e-09	-3.839548e+01	-1.271085e+02
3.000000e-08	-5.419457e-06	-1.910015e-09	-3.839315e+01	-1.270236e+02
4.000000e-08	-5.418758e-06	-1.903025e-09	-3.838819e+01	-1.269441e+02
5.000000e-08	-5.417519e-06	-1.901871e-09	-3.837942e+01	-1.268707e+02
6.000000e-08	-5.415579e-06	-1.908732e-09	-3.836567e+01	-1.268038e+02
7.000000e-08	-5.413002e-06	-1.918891e-09	-3.834742e+01	-1.267438e+02
8.000000e-08	-5.409869e-06	-1.885467e-09	-3.832522e+01	-1.266910e+02
9.000000e-08	-5.406235e-06	-1.853953e-09	-3.829948e+01	-1.266457e+02
1.000000e-07	-5.402227e-06	-1.937094e-09	-3.827108e+01	-1.266082e+02
1.100000e-07	-5.397907e-06	-2.007283e-09	-3.824048e+01	-1.265785e+02
1.200000e-07	-5.393372e-06	-1.862044e-09	-3.820835e+01	-1.265566e+02
1.300000e-07	-5.388680e-06	-1.806687e-09	-3.817511e+01	-1.265425e+02
1.400000e-07	-5.383631e-06	-1.907858e-09	-3.813934e+01	-1.265361e+02
1.500000e-07	-5.378038e-06	-2.046904e-09	-3.809972e+01	-1.265371e+02
1.600000e-07	-5.371981e-06	-1.853125e-09	-3.805681e+01	-1.265453e+02
1.700000e-07	-5.365642e-06	-1.744782e-09	-3.801190e+01	-1.265601e+02
1.800000e-07	-5.358962e-06	-1.912921e-09	-3.796458e+01	-1.265812e+02
1.900000e-07	-5.351844e-06	-2.035266e-09	-3.791415e+01	-1.266080e+02
2.000000e-07	-5.344340e-06	-1.895424e-09	-3.786099e+01	-1.266398e+02
2.100000e-07	-5.336638e-06	-1.813713e-09	-3.780643e+01	-1.266759e+02
2.200000e-07	-5.328810e-06	-1.989912e-09	-3.775097e+01	-1.267156e+02
2.300000e-07	-5.320716e-06	-2.010335e-09	-3.769363e+01	-1.267580e+02
2.400000e-07	-5.312184e-06	-1.899560e-09	-3.763319e+01	-1.268023e+02
2.500000e-07	-5.303118e-06	-1.924345e-09	-3.756896e+01	-1.268475e+02
2.600000e-07	-5.293335e-06	-2.088876e-09	-3.749966e+01	-1.268927e+02
2.700000e-07	-5.282734e-06	-2.010766e-09	-3.742456e+01	-1.269368e+02
2.800000e-07	-5.271638e-06	-1.933125e-09	-3.734595e+01	-1.269790e+02
2.900000e-07	-5.260184e-06	-2.024835e-09	-3.726481e+01	-1.270181e+02
3.000000e-07	-5.248350e-06	-2.072739e-09	-3.718097e+01	-1.270531e+02
3.100000e-07	-5.236138e-06	-1.909015e-09	-3.709445e+01	-1.270831e+02
3.200000e-07	-5.223612e-06	-1.935456e-09	-3.700571e+01	-1.271070e+02
3.300000e-07	-5.210624e-06	-2.056534e-09	-3.691371e+01	-1.271239e+02
3.400000e-07	-5.197157e-06	-2.018250e-09	-3.681830e+01	-1.271328e+02
3.500000e-07	-5.183277e-06	-1.917987e-09	-3.671997e+01	-1.271329e+02
3.600000e-07	-5.169056e-06	-2.010361e-09	-3.661923e+01	-1.271233e+02
3.700000e-07	-5.154417e-06	-2.013118e-09	-3.651552e+01	-1.271032e+02
3.800000e-07	-5.139270e-06	-1.929405e-09	-3.640821e+01	-1.270719e+02
3.900000e-07	-5.123572e-06	-1.942733e-09	-3.629700e+01	-1.270289e+02
4.000000e-07	-5.107289e-06	-1.998074e-09	-3.618165e+01	-1.269734e+02
4.100000e-07	-5.090546e-06	-1.936485e-09	-3.606303e+01	-1.269051e+02
4.200000e-07	-5.073604e-06	-1.946309e-09	-3.594301e+01	-1.268236e+02
4.300000e-07	-5.056397e-06	-2.021231e-09	-3.582111e+01	-1.267285e+02
4.400000e-07	-5.038853e-06	-1.972374e-09	-3.569682e+01	-1.266196e+02
4.500000e-07	-5.021073e-06	-1.912309e-09	-3.557086e+01	-1.264969e+02
4.600000e-07	-5.002936e-06	-1.953824e-09	-3.544238e+01	-1.263603e+02
4.700000e-07	-4.984337e-06	-1.974704e-09	-3.531061e+01	-1.262098e+02
4.800000e-07	-4.965341e-06	-1.913296e-09	-3.517604e+01	-1.260457e+02
4.900000e-07	-4.946079e-06	-1.925743e-09	-3.503958e+01	-1.258682e+02
5.000000e-07	-4.926462e-06	-1.944926e-09	-3.490062e+01	-1.256776e+02
5.100000e-07	-4.906585e-06	-1.944268e-09	-3.475980e+01	-1.254744e+02
5.200000e-07	-4.886587e-06	-1.932988e-09	-3.461813e+01	-1.252590e+02
5.300000e-07	-4.866390e-06	-1.935482e-09	-3.447504e+01	-1.250321e+02
5.400000e-07	-4.845871e-06	-1.901243e-09	-3.432968e+01	-1.247942e+02
5.500000e-07	-4.824983e-06	-1.921048e-09	-3.418170e+01	-1.245462e+02
5.600000e-07	-4.803670e-06	-1.930024e-09	-3.403072e+01	-1.242886e+02
5.700000e-07	-4.782035e-06	-1.911088e-09	-3.387744e+01	-1.240224e+02
5.800000e-07	-4.760167e-06	-1.881453e-09	-3.372252e+01	-1.237483e+02
5.900000e-07	-4.737998e-06	-1.900023e-09	-3.356548e+01	-1.234672e+02
6.000000e-07	-4.715419e-06	-1.898638e-09	-3.340552e+01	-1.231799e+02
6.100000e-07	-4.692427e-06	-1.895074e-09	-3.324264e+01	-1.228874e+02
6.200000e-07	-4.669099e-06	-1.876716e-09	-3.307737e+01	-1.225905e+02
6.300000e-07	-4.645489e-06	-1.881601e-09	-3.291011e+01	-1.222901e+02
6.400000e-07	-4.621663e-06	-1.893905e-09	-3.274132e+01	-1.219871e+02
6.500000e-07	-4.597626e-06	-1.896836e-09	-3.257103e+01	-1.216822e+02
6.600000e-07	-4.573326e-06	-1.864093e-09	-3.239889e+01	-1.213763e+02
6.700000e-07	-4.548771e-06	-1.854187e-09	-3.222493e+01	-1.210701e+02
6.800000e-07	-4.523771e-06	-1.863974e-09	-3.204782e+01	-1.207643e+02
6.900000e-07	-4.498141e-06	-1.864172e-09	-3.186625e+01	-1.204595e+02
7.000000e-07	-4.472044e-06	-1.847347e-09	-3.168137e+01	-1.201564e+02
7.100000e-07	-4.445599e-06	-1.840610e-09	-3.149403e+01	-1.198554e+02
7.200000e-07	-4.418674e-06	-1.851445e-09	-3.130328e+01	-1.195570e+02
7.300000e-07	-4.391280e-06	-1.859982e-09	-3.110922e+01	-1.192616e+02
7.400000e-07	-4.363629e-06	-1.850727e-09	-3.091332e+01	-1.189695e+02
7.500000e-07	-4.335869e-06	-1.829232e-09	-3.071666e+01	-1.186809e+02
7.600000e-07	-4.307885e-06	-1.830921e-09	-3.051842e+01	-1.183959e+02
7.700000e-07	-4.279627e-06	-1.837272e-09	-3.031823e+01	-1.181146e+02
7.800000e-07	-4.251138e-06	-1.831848e-09	-3.011641e+01	-1.178370e+02
7.900000e-07	-4.222396e-06	-1.813660e-09	-2.991279e+01	-1.175629e+02
8.000000e-07	-4.193357e-06	-1.816244e-09	-2.970706e+01	-1.172923e+02
8.100000e-07	-4.163966e-06	-1.819486e-09	-2.949885e+01	-1.170249e+02
8.200000e-07	-4.134280e-06	-1.819288e-09	-2.928854e+01	-1.167604e+02
8.300000e-07	-4.104324e-06	-1.797946e-09	-2.907633e+01	-1.164984e+02
8.400000e-07	-4.074115e-06	-1.788725e-09	-2.886232e+01	-1.162386e+02
8.500000e-07	-4.043603e-06	-1.790259e-09	-2.864616e+01	-1.159804e+02
8.600000e-07	-4.012778e-06	-1.799085e-09	-2.842779e+01	-1.157233e+02
8.700000e-07	-3.981672e-06	-1.788097e-09	-2.820742e+01	-1.154668e+02
8.800000e-07	-3.950255e-06	-1.780982e-09	-2.798486e+01	-1.152103e+02
8.900000e-07	-3.918720e-06	-1.776771e-09	-2.776145e+01	-1.149533e+02
9.000000e-07	-3.887083e-06	-1.778150e-09	-2.753732e+01	-1.146950e+02
9.100000e-07	-3.855205e-06	-1.762793e-09	-2.731149e+01	-1.144349e+02
9.200000e-07	-3.823157e-06	-1.750695e-09	-2.708445e+01	-1.141724e+02
9.300000e-07	-3.790958e-06	-1.750874e-09	-2.685634e+01	-1.139069e+02
9.400000e-07	-3.758508e-06	-1.765064e-09	-2.662646e+01	-1.136377e+02
9.500000e-07	-3.725611e-06	-1.767368e-09	-2.639340e+01	-1.133643e+02
9.600000e-07	-3.692221e-06	-1.760584e-09	-2.615686e+01	-1.130861e+02
9.700000e-07	-3.658352e-06	-1.751218e-09	-2.591692e+01	-1.128026e+02
9.800000e-07	-3.624074e-06	-1.745861e-09	-2.567409e+01	-1.125134e+02
9.900000e-07	-3.589416e-06	-1.732721e-09	-2.542856e+01	-1.122180e+02
1.000000e-06	-3.554290e-06	-1.716167e-09	-2.517971e+01	-1.119160e+02
1.010000e-06	-3.518832e-06	-1.709005e-09	-2.492852e+01	-1.116071e+02
1.020000e-06	-3.483210e-06	-1.712410e-09	-2.467616e+01	-1.112910e+02
1.030000e-06	-3.447492e-06	-1.718606e-09	-2.442312e+01	-1.109675e+02
1.040000e-06	-3.411689e-06	-1.715308e-09	-2.416948e+01	-1.106365e+02
1.050000e-06	-3.375695e-06	-1.708383e-09	-2.391449e+01	-1.102977e+02
1.060000e-06	-3.339517e-06	-1.700741e-09	-2.365819e+01	-1.099513e+02
1.070000e-06	-3.303228e-06	-1.690721e-09	-2.340111e+01	-1.095972e+02
1.080000e-06	-3.266670e-06	-1.671666e-09	-2.314212e+01	-1.092355e+02
1.090000e-06	-3.229801e-06	-1.659492e-09	-2.288093e+01	-1.088662e+02
1.100000e-06	-3.192739e-06	-1.654875e-09	-2.261837e+01	-1.084896e+02
1.110000e-06	-3.155467e-06	-1.656406e-09	-2.235433e+01	-1.081059e+02
1.120000e-06	-3.117936e-06	-1.651406e-09	-2.208844e+01	-1.077154e+02
1.130000e-06	-3.080210e-06	-1.646998e-09	-2.182118e+01	-1.073183e+02
1.140000e-06	-3.042376e-06	-1.640526e-09	-2.155315e+01	-1.069150e+02
1.150000e-06	-3.004320e-06	-1.636521e-09	-2.128355e+01	-1.065058e+02
1.160000e-06	-2.966007e-06	-1.625692e-09	-2.101213e+01	-1.060912e+02
1.170000e-06	-2.927453e-06	-1.616508e-09	-2.073900e+01	-1.056714e+02
1.180000e-06	-2.888642e-06	-1.608161e-09	-2.046405e+01	-1.052470e+02
1.190000e-06	-2.849644e-06	-1.602824e-09	-2.018778e+01	-1.048182e+02
1.200000e-06	-2.810457e-06	-1.595345e-09	-1.991016e+01	-1.043856e+02
1.210000e-06	-2.771155e-06	-1.590899e-09	-1.963173e+01	-1.039495e+02
1.220000e-06	-2.731643e-06	-1.587134e-09	-1.935183e+01	-1.035103e+02
1.230000e-06	-2.691884e-06	-1.585932e-09	-1.907016e+01	-1.030683e+02
1.240000e-06	-2.652076e-06	-1.577271e-09	-1.878814e+01	-1.026238e+02
1.250000e-06	-2.612267e-06	-1.567700e-09	-1.850612e+01	-1.021771e+02
1.260000e-06	-2.572356e-06	-1.560223e-09	-1.822338e+01	-1.017285e+02
1.270000e-06	-2.532221e-06	-1.552245e-09	-1.793905e+01	-1.012781e+02
1.280000e-06	-2.491985e-06	-1.543422e-09	-1.765401e+01	-1.008262e+02
1.290000e-06	-2.451675e-06	-1.534256e-09	-1.736844e+01	-1.003728e+02
1.300000e-06	-2.411215e-06	-1.528233e-09	-1.708181e+01	-9.991799e+01
1.310000e-06	-2.370547e-06	-1.522894e-09	-1.679371e+01	-9.946174e+01
1.320000e-06	-2.329590e-06	-1.516140e-09	-1.650355e+01	-9.900401e+01
1.330000e-06	-2.288376e-06	-1.507550e-09	-1.621158e+01	-9.854469e+01
1.340000e-06	-2.246812e-06	-1.501389e-09	-1.591712e+01	-9.808360e+01
1.350000e-06	-2.204879e-06	-1.497295e-09	-1.562006e+01	-9.762052e+01
1.360000e-06	-2.162737e-06	-1.490514e-09	-1.532151e+01	-9.715517e+01
1.370000e-06	-2.120287e-06	-1.476884e-09	-1.502078e+01	-9.668722e+01
1.380000e-06	-2.077493e-06	-1.464225e-09	-1.471762e+01	-9.621629e+01
1.390000e-06	-2.034498e-06	-1.455657e-09	-1.441303e+01	-9.574196e+01
1.400000e-06	-1.991324e-06	-1.449556e-09	-1.410717e+01	-9.526377e+01
1.410000e-06	-1.948018e-06	-1.440705e-09	-1.380037e+01	-9.478120e+01
1.420000e-06	-1.904667e-06	-1.435417e-09	-1.349326e+01	-9.429373e+01
1.430000e-06	-1.861204e-06	-1.432754e-09	-1.318536e+01	-9.380079e+01
1.440000e-06	-1.817535e-06	-1.429194e-09	-1.287599e+01	-9.330178e+01
1.450000e-06	-1.773725e-06	-1.418854e-09	-1.256563e+01	-9.279611e+01
1.460000e-06	-1.729853e-06	-1.405881e-09	-1.225483e+01	-9.228315e+01
1.470000e-06	-1.685944e-06	-1.394290e-09	-1.194376e+01	-9.176229e+01
1.480000e-06	-1.641951e-06	-1.387054e-09	-1.163210e+01	-9.123290e+01
1.490000e-06	-1.597918e-06	-1.379934e-09	-1.132016e+01	-9.069435e+01
1.500000e-06	-1.553893e-06	-1.373559e-09	-1.100827e+01	-9.014604e+01
1.510000e-06	-1.509812e-06	-1.368293e-09	-1.069598e+01	-8.958736e+01
1.520000e-06	-1.465612e-06	-1.360674e-09	-1.038286e+01	-8.901774e+01
1.530000e-06	-1.421316e-06	-1.346931e-09	-1.006905e+01	-8.843662e+01
1.540000e-06	-1.376921e-06	-1.331303e-09	-9.754540e+00	-8.784347e+01
1.550000e-06	-1.332426e-06	-1.318610e-09	-9.439326e+00	-8.723779e+01
1.560000e-06	-1.287811e-06	-1.310653e-09	-9.123258e+00	-8.661911e+01
1.570000e-06	-1.243052e-06	-1.304753e-09	-8.806171e+00	-8.598699e+01
1.580000e-06	-1.198273e-06	-1.298918e-09	-8.488946e+00	-8.534104e+01
1.590000e-06	-1.153425e-06	-1.292014e-09	-8.171230e+00	-8.468088e+01
1.600000e-06	-1.108428e-06	-1.283832e-09	-7.852452e+00	-8.400619e+01
1.610000e-06	-1.063330e-06	-1.271175e-09	-7.532962e+00	-8.331668e+01
1.620000e-06	-1.018113e-06	-1.255398e-09	-7.212634e+00	-8.261209e+01
1.630000e-06	-9.728338e-07	-1.239976e-09	-6.891862e+00	-8.189219e+01
1.640000e-06	-9.274772e-07	-1.227267e-09	-6.570542e+00	-8.115679e+01
1.650000e-06	-8.820271e-07	-1.216800e-09	-6.248558e+00	-8.040571e+01
1.660000e-06	-8.366059e-07	-1.206611e-09	-5.926780e+00	-7.963881e+01
1.670000e-06	-7.911379e-07	-1.198288e-09	-5.604671e+00	-7.885597e+01
1.680000e-06	-7.455628e-07	-1.188409e-09	-5.281802e+00	-7.805706e+01
1.690000e-06	-6.999517e-07	-1.173763e-09	-4.958679e+00	-7.724198e+01
1.700000e-06	-6.543431e-07	-1.156420e-09	-4.635574e+00	-7.641065e+01
1.710000e-06	-6.087087e-07	-1.141939e-09	-4.312285e+00	-7.556295e+01
1.720000e-06	-5.630017e-07	-1.129876e-09	-3.988482e+00	-7.469878e+01
1.730000e-06	-5.172650e-07	-1.118512e-09	-3.664469e+00	-7.381802e+01
1.740000e-06	-4.714873e-07	-1.105587e-09	-3.340165e+00	-7.292054e+01
1.750000e-06	-4.255999e-07	-1.093577e-09	-3.015084e+00	-7.200618e+01
1.760000e-06	-3.797223e-07	-1.079617e-09	-2.690072e+00	-7.107475e+01
1.770000e-06	-3.338633e-07	-1.061356e-09	-2.365193e+00	-7.012603e+01
1.780000e-06	-2.879314e-07	-1.041014e-09	-2.039797e+00	-6.915975e+01
1.790000e-06	-2.420340e-07	-1.025314e-09	-1.714646e+00	-6.817563e+01
1.800000e-06	-1.961684e-07	-1.012610e-09	-1.389719e+00	-6.717331e+01
1.810000e-06	-1.502685e-07	-9.980185e-10	-1.064549e+00	-6.615239e+01
1.820000e-06	-1.043024e-07	-9.778970e-10	-7.389114e-01	-6.511243e+01
1.830000e-06	-5.835893e-08	-9.562439e-10	-4.134331e-01	-6.405292e+01
1.840000e-06	-1.244811e-08	-9.388805e-10	-8.818631e-02	-6.297330e+01
1.850000e-06	3.349949e-08	-9.251018e-10	2.373210e-01	-6.187297e+01
1.860000e-06	7.943982e-08	-9.089745e-10	5.627768e-01	-6.075125e+01
1.870000e-06	1.253389e-07	-8.927567e-10	8.879400e-01	-5.960742e+01
1.880000e-06	1.712249e-07	-8.799749e-10	1.213011e+00	-5.844072e+01
1.890000e-06	2.171108e-07	-8.660269e-10	1.538082e+00	-5.725032e+01
1.900000e-06	2.630195e-07	-8.447725e-10	1.863314e+00	-5.603536e+01
1.910000e-06	3.089276e-07	-8.183063e-10	2.188541e+00	-5.479494e+01
1.920000e-06	3.547528e-07	-7.940028e-10	2.513181e+00	-5.352813e+01
1.930000e-06	4.005673e-07	-7.752848e-10	2.837745e+00	-5.223396e+01
1.940000e-06	4.463629e-07	-7.556605e-10	3.162175e+00	-5.091144e+01
1.950000e-06	4.920981e-07	-7.314420e-10	3.486178e+00	-4.955960e+01
1.960000e-06	5.377878e-07	-7.118784e-10	3.809859e+00	-4.817742e+01
1.970000e-06	5.834068e-07	-6.964701e-10	4.133038e+00	-4.676392e+01
1.980000e-06	6.290016e-07	-6.758903e-10	4.456046e+00	-4.531811e+01
1.990000e-06	6.746367e-07	-6.480646e-10	4.779340e+00	-4.383906e+01
2.000000e-06	7.202443e-07	-6.198709e-10	5.102438e+00	-4.232583e+01
2.010000e-06	7.657508e-07	-5.959394e-10	5.424821e+00	-4.077756e+01
2.020000e-06	8.111874e-07	-5.741886e-10	5.746708e+00	-3.919344e+01
2.030000e-06	8.565745e-07	-5.487489e-10	6.068245e+00	-3.757270e+01
2.040000e-06	9.019553e-07	-5.221695e-10	6.389736e+00	-3.591468e+01
2.050000e-06	9.473177e-07	-4.989045e-10	6.711098e+00	-3.421879e+01
2.060000e-06	9.925396e-07	-4.762891e-10	7.031464e+00	-3.248454e+01
2.070000e-06	1.037696e-06	-4.468798e-10	7.351366e+00	-3.071154e+01
2.080000e-06	1.082822e-06	-4.128353e-10	7.671052e+00	-2.889951e+01
2.090000e-06	1.127787e-06	-3.839741e-10	7.989597e+00	-2.704832e+01
2.100000e-06	1.172593e-06	-3.599797e-10	8.307019e+00	-2.515793e+01
2.110000e-06	1.217313e-06	-3.328508e-10	8.623830e+00	-2.322846e+01
2.120000e-06	1.261920e-06	-3.010132e-10	8.939840e+00	-2.126018e+01
2.130000e-06	1.306423e-06	-2.712008e-10	9.255110e+00	-1.925349e+01
2.140000e-06	1.350831e-06	-2.434538e-10	9.569717e+00	-1.720894e+01
2.150000e-06	1.395189e-06	-2.117759e-10	9.883957e+00	-1.512724e+01
2.160000e-06	1.439489e-06	-1.774320e-10	1.019780e+01	-1.300926e+01
2.170000e-06	1.483664e-06	-1.437130e-10	1.051074e+01	-1.085602e+01
2.180000e-06	1.527765e-06	-1.132291e-10	1.082317e+01	-8.668689e+00
2.190000e-06	1.571803e-06	-8.267291e-11	1.113515e+01	-6.448605e+00
2.200000e-06	1.615785e-06	-4.926480e-11	1.144673e+01	-4.197245e+00
2.210000e-06	1.659694e-06	-1.564334e-11	1.175780e+01	-1.916237e+00
2.220000e-06	1.703551e-06	1.684251e-11	1.206849e+01	3.926527e-01
2.230000e-06	1.747395e-06	5.258268e-11	1.237910e+01	2.727519e+00
2.240000e-06	1.791184e-06	9.312671e-11	1.268932e+01	5.086329e+00
2.250000e-06	1.834916e-06	1.333965e-10	1.299913e+01	7.466932e+00
2.260000e-06	1.878554e-06	1.703023e-10	1.330827e+01	9.867064e+00
2.270000e-06	1.922070e-06	2.041333e-10	1.361655e+01	1.228436e+01
2.280000e-06	1.965489e-06	2.388024e-10	1.392414e+01	1.471637e+01
2.290000e-06	2.008758e-06	2.748870e-10	1.423067e+01	1.716055e+01
2.300000e-06	2.051843e-06	3.087612e-10	1.453591e+01	1.961432e+01
2.310000e-06	2.094664e-06	3.439237e-10	1.483926e+01	2.207500e+01
2.320000e-06	2.137262e-06	3.846862e-10	1.514104e+01	2.453991e+01
2.330000e-06	2.179684e-06	4.278420e-10	1.544157e+01	2.700631e+01
2.340000e-06	2.221761e-06	4.664161e-10	1.573966e+01	2.947148e+01
2.350000e-06	2.263441e-06	4.989158e-10	1.603493e+01	3.193265e+01
2.360000e-06	2.304701e-06	5.299202e-10	1.632723e+01	3.438710e+01
2.370000e-06	2.345713e-06	5.644517e-10	1.661777e+01	3.683212e+01
2.380000e-06	2.386588e-06	6.011909e-10	1.690735e+01	3.926503e+01
2.390000e-06	2.427189e-06	6.364934e-10	1.719498e+01	4.168321e+01
2.400000e-06	2.467551e-06	6.743982e-10	1.748091e+01	4.408409e+01
2.410000e-06	2.507775e-06	7.160071e-10	1.776587e+01	4.646518e+01
2.420000e-06	2.547951e-06	7.577352e-10	1.805049e+01	4.882406e+01
2.430000e-06	2.588025e-06	7.951047e-10	1.833439e+01	5.115842e+01
2.440000e-06	2.627945e-06	8.271958e-10	1.861719e+01	5.346604e+01
2.450000e-06	2.667778e-06	8.566599e-10	1.889938e+01	5.574481e+01
2.460000e-06	2.707531e-06	8.889856e-10	1.918100e+01	5.799274e+01
2.470000e-06	2.747124e-06	9.222437e-10	1.946149e+01	6.020796e+01
2.480000e-06	2.786524e-06	9.564239e-10	1.974062e+01	6.238874e+01
2.490000e-06	2.825814e-06	9.906629e-10	2.001896e+01	6.453346e+01
2.500000e-06	2.864897e-06	1.024282e-09	2.029583e+01	6.664065e+01
2.510000e-06	2.903660e-06	1.058017e-09	2.057045e+01	6.870899e+01
2.520000e-06	2.942208e-06	1.091522e-09	2.084353e+01	7.073729e+01
2.530000e-06	2.980540e-06	1.125317e-09	2.111508e+01	7.272449e+01
2.540000e-06	3.018616e-06	1.155835e-09	2.138483e+01	7.466970e+01
2.550000e-06	3.056542e-06	1.179800e-09	2.165351e+01	7.657213e+01
2.560000e-06	3.094297e-06	1.201385e-09	2.192097e+01	7.843115e+01
2.570000e-06	3.131819e-06	1.225865e-09	2.218679e+01	8.024627e+01
2.580000e-06	3.169144e-06	1.250501e-09	2.245121e+01	8.201712e+01
2.590000e-06	3.206268e-06	1.274075e-09	2.271421e+01	8.374344e+01
2.600000e-06	3.243159e-06	1.300845e-09	2.297556e+01	8.542511e+01
2.610000e-06	3.279766e-06	1.332487e-09	2.323490e+01	8.706212e+01
2.620000e-06	3.316125e-06	1.363802e-09	2.349247e+01	8.865457e+01
2.630000e-06	3.352319e-06	1.387569e-09	2.374888e+01	9.020264e+01
2.640000e-06	3.388369e-06	1.401981e-09	2.400428e+01	9.170663e+01
2.650000e-06	3.424280e-06	1.413052e-09	2.425868e+01	9.316690e+01
2.660000e-06	3.460106e-06	1.426834e-09	2.451248e+01	9.458391e+01
2.670000e-06	3.495800e-06	1.445162e-09	2.476535e+01	9.595819e+01
2.680000e-06	3.531301e-06	1.465481e-09	2.501685e+01	9.729032e+01
2.690000e-06	3.566590e-06	1.487269e-09	2.526685e+01	9.858094e+01
2.700000e-06	3.601602e-06	1.510589e-09	2.551488e+01	9.983074e+01
2.710000e-06	3.636265e-06	1.535324e-09	2.576045e+01	1.010405e+02
2.720000e-06	3.670448e-06	1.554802e-09	2.600262e+01	1.022108e+02
2.730000e-06	3.704081e-06	1.567429e-09	2.624088e+01	1.033427e+02
2.740000e-06	3.737126e-06	1.579398e-09	2.647498e+01	1.044369e+02
2.750000e-06	3.769674e-06	1.594240e-09	2.670556e+01	1.054942e+02
2.760000e-06	3.801950e-06	1.609918e-09	2.693422e+01	1.065154e+02
2.770000e-06	3.834071e-06	1.623634e-09	2.716177e+01	1.075015e+02
2.780000e-06	3.866036e-06	1.637343e-09	2.738822e+01	1.084532e+02
2.790000e-06	3.897878e-06	1.653812e-09	2.761380e+01	1.093715e+02
2.800000e-06	3.929604e-06	1.669557e-09	2.783856e+01	1.102571e+02
2.810000e-06	3.961149e-06	1.679769e-09	2.806203e+01	1.111109e+02
2.820000e-06	3.992398e-06	1.689344e-09	2.828341e+01	1.119337e+02
2.830000e-06	4.023337e-06	1.701646e-09	2.850259e+01	1.127264e+02
2.840000e-06	4.053983e-06	1.712972e-09	2.871970e+01	1.134897e+02
2.850000e-06	4.084299e-06	1.722727e-09	2.893446e+01	1.142244e+02
2.860000e-06	4.114307e-06	1.732305e-09	2.914705e+01	1.149313e+02
2.870000e-06	4.144013e-06	1.744060e-09	2.935750e+01	1.156111e+02
2.880000e-06	4.173416e-06	1.756735e-09	2.956579e+01	1.162646e+02
2.890000e-06	4.202611e-06	1.765467e-09	2.977262e+01	1.168925e+02
2.900000e-06	4.231615e-06	1.772234e-09	2.997810e+01	1.174956e+02
