# Temperatura_=_17.4
# Concentracion g/m^3_=_4090.0
# C_Vs_to_Am_M_A/Vsm_=_65563218390.804596
# pendiente_HvsI_1/m_=_3716.3
# ordenada_HvsI_A/m_=_1297.0
# frecuencia_Hz_=_135084.63533957704

Tiempo_(s)	Campo_(V.s)	Magnetizacion_(V.s)	Campo_(kA/m)	Magnetizacion_(A/m)
0.000000e+00	-5.404294e-06	-1.255092e-09	-3.837930e+01	-8.501685e+01
1.000000e-08	-5.404410e-06	-1.250897e-09	-3.838013e+01	-8.490252e+01
2.000000e-08	-5.404291e-06	-1.246433e-09	-3.837928e+01	-8.480247e+01
3.000000e-08	-5.403894e-06	-1.241198e-09	-3.837646e+01	-8.471765e+01
4.000000e-08	-5.403107e-06	-1.239179e-09	-3.837087e+01	-8.464891e+01
5.000000e-08	-5.401868e-06	-1.239862e-09	-3.836207e+01	-8.459695e+01
6.000000e-08	-5.400057e-06	-1.240230e-09	-3.834921e+01	-8.456236e+01
7.000000e-08	-5.397535e-06	-1.249753e-09	-3.833130e+01	-8.454560e+01
8.000000e-08	-5.394438e-06	-1.263084e-09	-3.830930e+01	-8.454695e+01
9.000000e-08	-5.390779e-06	-1.249029e-09	-3.828332e+01	-8.456657e+01
1.000000e-07	-5.386660e-06	-1.201651e-09	-3.825407e+01	-8.460444e+01
1.100000e-07	-5.382385e-06	-1.235488e-09	-3.822371e+01	-8.466041e+01
1.200000e-07	-5.378014e-06	-1.287506e-09	-3.819267e+01	-8.473416e+01
1.300000e-07	-5.373304e-06	-1.269652e-09	-3.815922e+01	-8.482521e+01
1.400000e-07	-5.367978e-06	-1.195093e-09	-3.812140e+01	-8.493293e+01
1.500000e-07	-5.362353e-06	-1.216326e-09	-3.808145e+01	-8.505654e+01
1.600000e-07	-5.356583e-06	-1.312443e-09	-3.804047e+01	-8.519513e+01
1.700000e-07	-5.350409e-06	-1.288019e-09	-3.799663e+01	-8.534763e+01
1.800000e-07	-5.343732e-06	-1.181648e-09	-3.794921e+01	-8.551286e+01
1.900000e-07	-5.336664e-06	-1.220442e-09	-3.789902e+01	-8.568950e+01
2.000000e-07	-5.329337e-06	-1.348641e-09	-3.784698e+01	-8.587615e+01
2.100000e-07	-5.321739e-06	-1.342508e-09	-3.779303e+01	-8.607129e+01
2.200000e-07	-5.313915e-06	-1.282823e-09	-3.773746e+01	-8.627333e+01
2.300000e-07	-5.305905e-06	-1.352130e-09	-3.768058e+01	-8.648059e+01
2.400000e-07	-5.297558e-06	-1.437013e-09	-3.762130e+01	-8.669135e+01
2.500000e-07	-5.288511e-06	-1.385116e-09	-3.755705e+01	-8.690384e+01
2.600000e-07	-5.278619e-06	-1.360792e-09	-3.748680e+01	-8.711627e+01
2.700000e-07	-5.268181e-06	-1.427036e-09	-3.741267e+01	-8.732684e+01
2.800000e-07	-5.257344e-06	-1.424829e-09	-3.733572e+01	-8.753373e+01
2.900000e-07	-5.246048e-06	-1.339892e-09	-3.725549e+01	-8.773516e+01
3.000000e-07	-5.234347e-06	-1.361089e-09	-3.717240e+01	-8.792939e+01
3.100000e-07	-5.222277e-06	-1.427652e-09	-3.708668e+01	-8.811472e+01
3.200000e-07	-5.209755e-06	-1.400136e-09	-3.699775e+01	-8.828949e+01
3.300000e-07	-5.196831e-06	-1.345369e-09	-3.690597e+01	-8.845216e+01
3.400000e-07	-5.183550e-06	-1.389752e-09	-3.681165e+01	-8.860124e+01
3.500000e-07	-5.169781e-06	-1.413541e-09	-3.671388e+01	-8.873537e+01
3.600000e-07	-5.155778e-06	-1.392379e-09	-3.661443e+01	-8.885329e+01
3.700000e-07	-5.141487e-06	-1.377408e-09	-3.651294e+01	-8.895385e+01
3.800000e-07	-5.126619e-06	-1.375483e-09	-3.640736e+01	-8.903606e+01
3.900000e-07	-5.111127e-06	-1.352710e-09	-3.629733e+01	-8.909904e+01
4.000000e-07	-5.095006e-06	-1.364058e-09	-3.618285e+01	-8.914206e+01
4.100000e-07	-5.078522e-06	-1.382833e-09	-3.606579e+01	-8.916456e+01
4.200000e-07	-5.061771e-06	-1.348828e-09	-3.594683e+01	-8.916609e+01
4.300000e-07	-5.044650e-06	-1.333646e-09	-3.582524e+01	-8.914639e+01
4.400000e-07	-5.027289e-06	-1.373899e-09	-3.570195e+01	-8.910533e+01
4.500000e-07	-5.009659e-06	-1.379670e-09	-3.557675e+01	-8.904295e+01
4.600000e-07	-4.991622e-06	-1.331311e-09	-3.544866e+01	-8.895941e+01
4.700000e-07	-4.973179e-06	-1.323659e-09	-3.531768e+01	-8.885505e+01
4.800000e-07	-4.954253e-06	-1.347128e-09	-3.518328e+01	-8.873032e+01
4.900000e-07	-4.934905e-06	-1.351522e-09	-3.504587e+01	-8.858580e+01
5.000000e-07	-4.915355e-06	-1.328808e-09	-3.490704e+01	-8.842223e+01
5.100000e-07	-4.895608e-06	-1.316553e-09	-3.476680e+01	-8.824042e+01
5.200000e-07	-4.875640e-06	-1.323389e-09	-3.462499e+01	-8.804132e+01
5.300000e-07	-4.855486e-06	-1.346860e-09	-3.448187e+01	-8.782595e+01
5.400000e-07	-4.834955e-06	-1.339875e-09	-3.433606e+01	-8.759541e+01
5.500000e-07	-4.814021e-06	-1.310486e-09	-3.418740e+01	-8.735090e+01
5.600000e-07	-4.792799e-06	-1.307448e-09	-3.403669e+01	-8.709365e+01
5.700000e-07	-4.771322e-06	-1.332855e-09	-3.388417e+01	-8.682495e+01
5.800000e-07	-4.749461e-06	-1.323820e-09	-3.372892e+01	-8.654610e+01
5.900000e-07	-4.727251e-06	-1.293417e-09	-3.357119e+01	-8.625843e+01
6.000000e-07	-4.704850e-06	-1.284876e-09	-3.341210e+01	-8.596329e+01
6.100000e-07	-4.681942e-06	-1.303294e-09	-3.324942e+01	-8.566200e+01
6.200000e-07	-4.658636e-06	-1.310541e-09	-3.308391e+01	-8.535586e+01
6.300000e-07	-4.635155e-06	-1.297366e-09	-3.291716e+01	-8.504615e+01
6.400000e-07	-4.611441e-06	-1.282294e-09	-3.274875e+01	-8.473409e+01
6.500000e-07	-4.587545e-06	-1.291685e-09	-3.257905e+01	-8.442087e+01
6.600000e-07	-4.563431e-06	-1.305279e-09	-3.240780e+01	-8.410758e+01
6.700000e-07	-4.539092e-06	-1.293421e-09	-3.223495e+01	-8.379527e+01
6.800000e-07	-4.514293e-06	-1.268334e-09	-3.205884e+01	-8.348487e+01
6.900000e-07	-4.488855e-06	-1.264976e-09	-3.187819e+01	-8.317726e+01
7.000000e-07	-4.462842e-06	-1.277537e-09	-3.169346e+01	-8.287320e+01
7.100000e-07	-4.436371e-06	-1.273703e-09	-3.150547e+01	-8.257336e+01
7.200000e-07	-4.409476e-06	-1.257430e-09	-3.131447e+01	-8.227830e+01
7.300000e-07	-4.382194e-06	-1.255013e-09	-3.112072e+01	-8.198848e+01
7.400000e-07	-4.354596e-06	-1.268420e-09	-3.092473e+01	-8.170425e+01
7.500000e-07	-4.326792e-06	-1.270577e-09	-3.072728e+01	-8.142586e+01
7.600000e-07	-4.298793e-06	-1.254727e-09	-3.052844e+01	-8.115345e+01
7.700000e-07	-4.270668e-06	-1.241405e-09	-3.032870e+01	-8.088706e+01
7.800000e-07	-4.242307e-06	-1.245807e-09	-3.012730e+01	-8.062662e+01
7.900000e-07	-4.213571e-06	-1.248746e-09	-2.992322e+01	-8.037199e+01
8.000000e-07	-4.184588e-06	-1.238195e-09	-2.971740e+01	-8.012291e+01
8.100000e-07	-4.155239e-06	-1.224630e-09	-2.950897e+01	-7.987907e+01
8.200000e-07	-4.125551e-06	-1.227384e-09	-2.929814e+01	-7.964006e+01
8.300000e-07	-4.095650e-06	-1.235372e-09	-2.908579e+01	-7.940541e+01
8.400000e-07	-4.065530e-06	-1.233056e-09	-2.887189e+01	-7.917459e+01
8.500000e-07	-4.035174e-06	-1.221346e-09	-2.865632e+01	-7.894703e+01
8.600000e-07	-4.004496e-06	-1.217287e-09	-2.843845e+01	-7.872211e+01
8.700000e-07	-3.973509e-06	-1.219850e-09	-2.821839e+01	-7.849917e+01
8.800000e-07	-3.942282e-06	-1.215710e-09	-2.799663e+01	-7.827754e+01
8.900000e-07	-3.910890e-06	-1.200450e-09	-2.777370e+01	-7.805654e+01
9.000000e-07	-3.879341e-06	-1.189543e-09	-2.754965e+01	-7.783548e+01
9.100000e-07	-3.847565e-06	-1.190286e-09	-2.732398e+01	-7.761367e+01
9.200000e-07	-3.815555e-06	-1.193068e-09	-2.709666e+01	-7.739044e+01
9.300000e-07	-3.783285e-06	-1.186925e-09	-2.686749e+01	-7.716516e+01
9.400000e-07	-3.750757e-06	-1.183453e-09	-2.663649e+01	-7.693719e+01
9.500000e-07	-3.717962e-06	-1.188294e-09	-2.640360e+01	-7.670597e+01
9.600000e-07	-3.684777e-06	-1.193748e-09	-2.616792e+01	-7.647096e+01
9.700000e-07	-3.651103e-06	-1.184808e-09	-2.592878e+01	-7.623167e+01
9.800000e-07	-3.616975e-06	-1.168849e-09	-2.568642e+01	-7.598768e+01
9.900000e-07	-3.582418e-06	-1.158638e-09	-2.544101e+01	-7.573862e+01
1.000000e-06	-3.547476e-06	-1.154050e-09	-2.519287e+01	-7.548418e+01
1.010000e-06	-3.512197e-06	-1.149953e-09	-2.494233e+01	-7.522411e+01
1.020000e-06	-3.476652e-06	-1.145974e-09	-2.468990e+01	-7.495824e+01
1.030000e-06	-3.440944e-06	-1.146098e-09	-2.443631e+01	-7.468646e+01
1.040000e-06	-3.405151e-06	-1.150092e-09	-2.418213e+01	-7.440871e+01
1.050000e-06	-3.369270e-06	-1.151190e-09	-2.392731e+01	-7.412501e+01
1.060000e-06	-3.333209e-06	-1.142699e-09	-2.367122e+01	-7.383545e+01
1.070000e-06	-3.296941e-06	-1.128897e-09	-2.341366e+01	-7.354015e+01
1.080000e-06	-3.260502e-06	-1.116641e-09	-2.315488e+01	-7.323931e+01
1.090000e-06	-3.223840e-06	-1.109660e-09	-2.289452e+01	-7.293317e+01
1.100000e-06	-3.186840e-06	-1.104814e-09	-2.263176e+01	-7.262201e+01
1.110000e-06	-3.149608e-06	-1.103490e-09	-2.236735e+01	-7.230616e+01
1.120000e-06	-3.112165e-06	-1.106077e-09	-2.210145e+01	-7.198599e+01
1.130000e-06	-3.074461e-06	-1.108523e-09	-2.183369e+01	-7.166186e+01
1.140000e-06	-3.036572e-06	-1.108167e-09	-2.156461e+01	-7.133419e+01
1.150000e-06	-2.998459e-06	-1.104526e-09	-2.129395e+01	-7.100340e+01
1.160000e-06	-2.960186e-06	-1.095359e-09	-2.102215e+01	-7.066990e+01
1.170000e-06	-2.921706e-06	-1.084344e-09	-2.074887e+01	-7.033413e+01
1.180000e-06	-2.882991e-06	-1.071261e-09	-2.047393e+01	-6.999648e+01
1.190000e-06	-2.844135e-06	-1.059492e-09	-2.019800e+01	-6.965738e+01
1.200000e-06	-2.805056e-06	-1.055121e-09	-1.992047e+01	-6.931718e+01
1.210000e-06	-2.765812e-06	-1.060339e-09	-1.964177e+01	-6.897624e+01
1.220000e-06	-2.726381e-06	-1.064862e-09	-1.936175e+01	-6.863488e+01
1.230000e-06	-2.686734e-06	-1.064308e-09	-1.908019e+01	-6.829337e+01
1.240000e-06	-2.647017e-06	-1.059243e-09	-1.879814e+01	-6.795197e+01
1.250000e-06	-2.607254e-06	-1.050990e-09	-1.851576e+01	-6.761084e+01
1.260000e-06	-2.567391e-06	-1.040616e-09	-1.823266e+01	-6.727014e+01
1.270000e-06	-2.527416e-06	-1.029944e-09	-1.794877e+01	-6.692995e+01
1.280000e-06	-2.487269e-06	-1.022364e-09	-1.766367e+01	-6.659030e+01
1.290000e-06	-2.447008e-06	-1.019474e-09	-1.737775e+01	-6.625117e+01
1.300000e-06	-2.406674e-06	-1.019094e-09	-1.709131e+01	-6.591248e+01
1.310000e-06	-2.366130e-06	-1.017163e-09	-1.680338e+01	-6.557410e+01
1.320000e-06	-2.325448e-06	-1.014292e-09	-1.651447e+01	-6.523582e+01
1.330000e-06	-2.284590e-06	-1.010012e-09	-1.622431e+01	-6.489742e+01
1.340000e-06	-2.243384e-06	-1.003939e-09	-1.593168e+01	-6.455859e+01
1.350000e-06	-2.201770e-06	-9.974155e-10	-1.563616e+01	-6.421899e+01
1.360000e-06	-2.159718e-06	-9.893435e-10	-1.533752e+01	-6.387823e+01
1.370000e-06	-2.117392e-06	-9.802706e-10	-1.503694e+01	-6.353588e+01
1.380000e-06	-2.074813e-06	-9.724884e-10	-1.473456e+01	-6.319148e+01
1.390000e-06	-2.031947e-06	-9.663292e-10	-1.443014e+01	-6.284453e+01
1.400000e-06	-1.988924e-06	-9.591454e-10	-1.412460e+01	-6.249450e+01
1.410000e-06	-1.945694e-06	-9.530130e-10	-1.381760e+01	-6.214085e+01
1.420000e-06	-1.902266e-06	-9.492922e-10	-1.350919e+01	-6.178301e+01
1.430000e-06	-1.858669e-06	-9.449160e-10	-1.319958e+01	-6.142040e+01
1.440000e-06	-1.814948e-06	-9.394334e-10	-1.288909e+01	-6.105246e+01
1.450000e-06	-1.771239e-06	-9.308934e-10	-1.257869e+01	-6.067859e+01
1.460000e-06	-1.727517e-06	-9.226104e-10	-1.226818e+01	-6.029822e+01
1.470000e-06	-1.683737e-06	-9.171984e-10	-1.195728e+01	-5.991078e+01
1.480000e-06	-1.639877e-06	-9.129085e-10	-1.164580e+01	-5.951572e+01
1.490000e-06	-1.595923e-06	-9.082653e-10	-1.133365e+01	-5.911250e+01
1.500000e-06	-1.551930e-06	-9.039220e-10	-1.102123e+01	-5.870061e+01
1.510000e-06	-1.507832e-06	-9.016821e-10	-1.070807e+01	-5.827954e+01
1.520000e-06	-1.463659e-06	-8.979113e-10	-1.039436e+01	-5.784883e+01
1.530000e-06	-1.419481e-06	-8.865302e-10	-1.008063e+01	-5.740805e+01
1.540000e-06	-1.375168e-06	-8.722745e-10	-9.765931e+00	-5.695678e+01
1.550000e-06	-1.330775e-06	-8.619227e-10	-9.450670e+00	-5.649464e+01
1.560000e-06	-1.286387e-06	-8.542681e-10	-9.135448e+00	-5.602129e+01
1.570000e-06	-1.241915e-06	-8.481348e-10	-8.819624e+00	-5.553640e+01
1.580000e-06	-1.197280e-06	-8.424014e-10	-8.502643e+00	-5.503968e+01
1.590000e-06	-1.152586e-06	-8.370192e-10	-8.185243e+00	-5.453087e+01
1.600000e-06	-1.107911e-06	-8.340007e-10	-7.867976e+00	-5.400971e+01
1.610000e-06	-1.063082e-06	-8.279573e-10	-7.549616e+00	-5.347599e+01
1.620000e-06	-1.018036e-06	-8.170476e-10	-7.229717e+00	-5.292951e+01
1.630000e-06	-9.728904e-07	-8.039993e-10	-6.909108e+00	-5.237007e+01
1.640000e-06	-9.276543e-07	-7.931236e-10	-6.587858e+00	-5.179749e+01
1.650000e-06	-8.823283e-07	-7.848262e-10	-6.265970e+00	-5.121160e+01
1.660000e-06	-8.369416e-07	-7.752466e-10	-5.943650e+00	-5.061221e+01
1.670000e-06	-7.914743e-07	-7.664915e-10	-5.620758e+00	-4.999916e+01
1.680000e-06	-7.460042e-07	-7.615300e-10	-5.297846e+00	-4.937225e+01
1.690000e-06	-7.005611e-07	-7.571396e-10	-4.975126e+00	-4.873128e+01
1.700000e-06	-6.550009e-07	-7.475803e-10	-4.651574e+00	-4.807602e+01
1.710000e-06	-6.093284e-07	-7.328371e-10	-4.327225e+00	-4.740624e+01
1.720000e-06	-5.635919e-07	-7.183576e-10	-4.002421e+00	-4.672167e+01
1.730000e-06	-5.178329e-07	-7.057522e-10	-3.677458e+00	-4.602201e+01
1.740000e-06	-4.721873e-07	-6.946609e-10	-3.353299e+00	-4.530691e+01
1.750000e-06	-4.265724e-07	-6.847212e-10	-3.029359e+00	-4.457601e+01
1.760000e-06	-3.808613e-07	-6.730144e-10	-2.704736e+00	-4.382891e+01
1.770000e-06	-3.349947e-07	-6.615551e-10	-2.379009e+00	-4.306515e+01
1.780000e-06	-2.891015e-07	-6.500294e-10	-2.053092e+00	-4.228424e+01
1.790000e-06	-2.432687e-07	-6.356778e-10	-1.727605e+00	-4.148564e+01
1.800000e-06	-1.974057e-07	-6.184244e-10	-1.401902e+00	-4.066880e+01
1.810000e-06	-1.515110e-07	-6.013317e-10	-1.075975e+00	-3.983309e+01
1.820000e-06	-1.056917e-07	-5.882929e-10	-7.505837e-01	-3.897786e+01
1.830000e-06	-5.995721e-08	-5.784225e-10	-4.257940e-01	-3.810245e+01
1.840000e-06	-1.410931e-08	-5.676764e-10	-1.001991e-01	-3.720613e+01
1.850000e-06	3.179042e-08	-5.544413e-10	2.257638e-01	-3.628816e+01
1.860000e-06	7.756173e-08	-5.391368e-10	5.508147e-01	-3.534780e+01
1.870000e-06	1.233632e-07	-5.245779e-10	8.760797e-01	-3.438428e+01
1.880000e-06	1.692036e-07	-5.099378e-10	1.201621e+00	-3.339681e+01
1.890000e-06	2.149923e-07	-4.919010e-10	1.526796e+00	-3.238462e+01
1.900000e-06	2.607975e-07	-4.707673e-10	1.852088e+00	-3.134694e+01
1.910000e-06	3.066198e-07	-4.510380e-10	2.177500e+00	-3.028303e+01
1.920000e-06	3.523989e-07	-4.345816e-10	2.502607e+00	-2.919215e+01
1.930000e-06	3.981050e-07	-4.180335e-10	2.827195e+00	-2.807363e+01
1.940000e-06	4.437812e-07	-3.992500e-10	3.151570e+00	-2.692681e+01
1.950000e-06	4.894682e-07	-3.801147e-10	3.476022e+00	-2.575110e+01
1.960000e-06	5.350777e-07	-3.636626e-10	3.799924e+00	-2.454597e+01
1.970000e-06	5.805924e-07	-3.460417e-10	4.123152e+00	-2.331097e+01
1.980000e-06	6.261286e-07	-3.236451e-10	4.446534e+00	-2.204572e+01
1.990000e-06	6.716532e-07	-3.003941e-10	4.769833e+00	-2.074992e+01
2.000000e-06	7.171472e-07	-2.807635e-10	5.092914e+00	-1.942339e+01
2.010000e-06	7.626646e-07	-2.615892e-10	5.416162e+00	-1.806605e+01
2.020000e-06	8.081265e-07	-2.396818e-10	5.739016e+00	-1.667792e+01
2.030000e-06	8.534614e-07	-2.147852e-10	6.060968e+00	-1.525915e+01
2.040000e-06	8.987000e-07	-1.913018e-10	6.382236e+00	-1.381001e+01
2.050000e-06	9.438395e-07	-1.696952e-10	6.702800e+00	-1.233088e+01
2.060000e-06	9.888954e-07	-1.461920e-10	7.022769e+00	-1.082232e+01
2.070000e-06	1.033872e-06	-1.204723e-10	7.342175e+00	-9.284971e+00
2.080000e-06	1.078744e-06	-9.511895e-11	7.660842e+00	-7.719645e+00
2.090000e-06	1.123493e-06	-7.399020e-11	7.978630e+00	-6.127275e+00
2.100000e-06	1.168142e-06	-5.276402e-11	8.295715e+00	-4.508936e+00
2.110000e-06	1.212786e-06	-2.555152e-11	8.612756e+00	-2.865834e+00
2.120000e-06	1.257373e-06	3.630098e-12	8.929397e+00	-1.199308e+00
2.130000e-06	1.301751e-06	2.826386e-11	9.244554e+00	4.891777e-01
2.140000e-06	1.345995e-06	5.052180e-11	9.558760e+00	2.198037e+00
2.150000e-06	1.390255e-06	7.533620e-11	9.873081e+00	3.925568e+00
2.160000e-06	1.434487e-06	1.011715e-10	1.018719e+01	5.669962e+00
2.170000e-06	1.478631e-06	1.261922e-10	1.050069e+01	7.429309e+00
2.180000e-06	1.522750e-06	1.506514e-10	1.081401e+01	9.201610e+00
2.190000e-06	1.566817e-06	1.773728e-10	1.112695e+01	1.098479e+01
2.200000e-06	1.610772e-06	2.077770e-10	1.143911e+01	1.277669e+01
2.210000e-06	1.654625e-06	2.366011e-10	1.175054e+01	1.457511e+01
2.220000e-06	1.698451e-06	2.630956e-10	1.206177e+01	1.637780e+01
2.230000e-06	1.742240e-06	2.908572e-10	1.237275e+01	1.818247e+01
2.240000e-06	1.785928e-06	3.230039e-10	1.268300e+01	1.998681e+01
2.250000e-06	1.829567e-06	3.541415e-10	1.299291e+01	2.178851e+01
2.260000e-06	1.873155e-06	3.807734e-10	1.330245e+01	2.358526e+01
2.270000e-06	1.916615e-06	4.071103e-10	1.361109e+01	2.537477e+01
2.280000e-06	1.959939e-06	4.350759e-10	1.391876e+01	2.715477e+01
2.290000e-06	2.003093e-06	4.629825e-10	1.422523e+01	2.892305e+01
2.300000e-06	2.046066e-06	4.857423e-10	1.453040e+01	3.067744e+01
2.310000e-06	2.088872e-06	5.046462e-10	1.483440e+01	3.241586e+01
2.320000e-06	2.131394e-06	5.299265e-10	1.513637e+01	3.413627e+01
2.330000e-06	2.173579e-06	5.612385e-10	1.543596e+01	3.583676e+01
2.340000e-06	2.215491e-06	5.887957e-10	1.573360e+01	3.751550e+01
2.350000e-06	2.257080e-06	6.116839e-10	1.602895e+01	3.917074e+01
2.360000e-06	2.298288e-06	6.377645e-10	1.632159e+01	4.080090e+01
2.370000e-06	2.339207e-06	6.689012e-10	1.661219e+01	4.240446e+01
2.380000e-06	2.379897e-06	6.961372e-10	1.690115e+01	4.398008e+01
2.390000e-06	2.420320e-06	7.150011e-10	1.718822e+01	4.552650e+01
2.400000e-06	2.460497e-06	7.294386e-10	1.747354e+01	4.704264e+01
2.410000e-06	2.500546e-06	7.472952e-10	1.775795e+01	4.852752e+01
2.420000e-06	2.540546e-06	7.717652e-10	1.804202e+01	4.998031e+01
2.430000e-06	2.580472e-06	7.995699e-10	1.832556e+01	5.140032e+01
2.440000e-06	2.620294e-06	8.279875e-10	1.860836e+01	5.278698e+01
2.450000e-06	2.660027e-06	8.538011e-10	1.889053e+01	5.413987e+01
2.460000e-06	2.699650e-06	8.784333e-10	1.917192e+01	5.545870e+01
2.470000e-06	2.739156e-06	8.980831e-10	1.945248e+01	5.674327e+01
2.480000e-06	2.778497e-06	9.079518e-10	1.973186e+01	5.799355e+01
2.490000e-06	2.817647e-06	9.151203e-10	2.000989e+01	5.920957e+01
2.500000e-06	2.856600e-06	9.295617e-10	2.028652e+01	6.039151e+01
2.510000e-06	2.895216e-06	9.529248e-10	2.056076e+01	6.153962e+01
2.520000e-06	2.933597e-06	9.809223e-10	2.083332e+01	6.265425e+01
2.530000e-06	2.971831e-06	1.009006e-09	2.110485e+01	6.373582e+01
2.540000e-06	3.009817e-06	1.033500e-09	2.137461e+01	6.478484e+01
2.550000e-06	3.047618e-06	1.049733e-09	2.164306e+01	6.580187e+01
2.560000e-06	3.085261e-06	1.055783e-09	2.191038e+01	6.678752e+01
2.570000e-06	3.122771e-06	1.056145e-09	2.217676e+01	6.774245e+01
2.580000e-06	3.160055e-06	1.056398e-09	2.244154e+01	6.866736e+01
2.590000e-06	3.197162e-06	1.065279e-09	2.270506e+01	6.956295e+01
2.600000e-06	3.234053e-06	1.086216e-09	2.296705e+01	7.042996e+01
2.610000e-06	3.270589e-06	1.113369e-09	2.322651e+01	7.126914e+01
2.620000e-06	3.306929e-06	1.138214e-09	2.348459e+01	7.208121e+01
2.630000e-06	3.343083e-06	1.155311e-09	2.374134e+01	7.286692e+01
2.640000e-06	3.379060e-06	1.164064e-09	2.399684e+01	7.362697e+01
2.650000e-06	3.414979e-06	1.164624e-09	2.425192e+01	7.436207e+01
2.660000e-06	3.450786e-06	1.158844e-09	2.450621e+01	7.507287e+01
2.670000e-06	3.486377e-06	1.156808e-09	2.475896e+01	7.576003e+01
2.680000e-06	3.521660e-06	1.165315e-09	2.500952e+01	7.642413e+01
2.690000e-06	3.556712e-06	1.185389e-09	2.525846e+01	7.706575e+01
2.700000e-06	3.591497e-06	1.210857e-09	2.550549e+01	7.768542e+01
2.710000e-06	3.625850e-06	1.232229e-09	2.574945e+01	7.828362e+01
2.720000e-06	3.659625e-06	1.243843e-09	2.598930e+01	7.886079e+01
2.730000e-06	3.692846e-06	1.247305e-09	2.622523e+01	7.941734e+01
2.740000e-06	3.725781e-06	1.245067e-09	2.645912e+01	7.995364e+01
2.750000e-06	3.758352e-06	1.240885e-09	2.669043e+01	8.047001e+01
2.760000e-06	3.790671e-06	1.242089e-09	2.691995e+01	8.096676e+01
2.770000e-06	3.822833e-06	1.250922e-09	2.714834e+01	8.144415e+01
2.780000e-06	3.854746e-06	1.267020e-09	2.737498e+01	8.190243e+01
2.790000e-06	3.886542e-06	1.283570e-09	2.760078e+01	8.234180e+01
2.800000e-06	3.918236e-06	1.291784e-09	2.782586e+01	8.276247e+01
2.810000e-06	3.949685e-06	1.290262e-09	2.804920e+01	8.316463e+01
2.820000e-06	3.980819e-06	1.286413e-09	2.827030e+01	8.354847e+01
2.830000e-06	4.011608e-06	1.284791e-09	2.848895e+01	8.391417e+01
2.840000e-06	4.042022e-06	1.286960e-09	2.870494e+01	8.426192e+01
2.850000e-06	4.072161e-06	1.293827e-09	2.891898e+01	8.459192e+01
2.860000e-06	4.102137e-06	1.303978e-09	2.913186e+01	8.490439e+01
2.870000e-06	4.131929e-06	1.314024e-09	2.934343e+01	8.519956e+01
2.880000e-06	4.161494e-06	1.320813e-09	2.955339e+01	8.547770e+01
2.890000e-06	4.190754e-06	1.319281e-09	2.976118e+01	8.573910e+01
2.900000e-06	4.219644e-06	1.313734e-09	2.996635e+01	8.598408e+01
