# Temperatura_=_24.65
# Concentracion g/m^3_=_4090.0
# C_Vs_to_Am_M_A/Vsm_=_65563218390.804596
# pendiente_HvsI_1/m_=_3716.3
# ordenada_HvsI_A/m_=_1297.0
# frecuencia_Hz_=_135093.37842585667

Tiempo_(s)	Campo_(V.s)	Magnetizacion_(V.s)	Campo_(kA/m)	Magnetizacion_(A/m)
0.000000e+00	-5.401232e-06	-2.689141e-09	-3.837623e+01	-1.748947e+02
1.000000e-08	-5.401557e-06	-2.688999e-09	-3.837854e+01	-1.749153e+02
2.000000e-08	-5.401675e-06	-2.684195e-09	-3.837938e+01	-1.749327e+02
3.000000e-08	-5.401488e-06	-2.677418e-09	-3.837805e+01	-1.749467e+02
4.000000e-08	-5.400767e-06	-2.670776e-09	-3.837293e+01	-1.749571e+02
5.000000e-08	-5.399560e-06	-2.662659e-09	-3.836435e+01	-1.749637e+02
6.000000e-08	-5.397784e-06	-2.653099e-09	-3.835174e+01	-1.749662e+02
7.000000e-08	-5.395289e-06	-2.657742e-09	-3.833401e+01	-1.749645e+02
8.000000e-08	-5.392225e-06	-2.710475e-09	-3.831223e+01	-1.749585e+02
9.000000e-08	-5.388769e-06	-2.760561e-09	-3.828769e+01	-1.749479e+02
1.000000e-07	-5.384841e-06	-2.699026e-09	-3.825977e+01	-1.749326e+02
1.100000e-07	-5.380592e-06	-2.609515e-09	-3.822958e+01	-1.749124e+02
1.200000e-07	-5.376288e-06	-2.626332e-09	-3.819900e+01	-1.748873e+02
1.300000e-07	-5.371722e-06	-2.741284e-09	-3.816656e+01	-1.748572e+02
1.400000e-07	-5.366617e-06	-2.680513e-09	-3.813029e+01	-1.748220e+02
1.500000e-07	-5.361074e-06	-2.557810e-09	-3.809091e+01	-1.747816e+02
1.600000e-07	-5.355340e-06	-2.619256e-09	-3.805016e+01	-1.747361e+02
1.700000e-07	-5.349307e-06	-2.786543e-09	-3.800730e+01	-1.746855e+02
1.800000e-07	-5.342646e-06	-2.755209e-09	-3.795997e+01	-1.746298e+02
1.900000e-07	-5.335532e-06	-2.601783e-09	-3.790943e+01	-1.745691e+02
2.000000e-07	-5.328309e-06	-2.645129e-09	-3.785811e+01	-1.745035e+02
2.100000e-07	-5.320956e-06	-2.726977e-09	-3.780586e+01	-1.744331e+02
2.200000e-07	-5.313319e-06	-2.673920e-09	-3.775161e+01	-1.743581e+02
2.300000e-07	-5.305387e-06	-2.598852e-09	-3.769525e+01	-1.742786e+02
2.400000e-07	-5.297157e-06	-2.690615e-09	-3.763677e+01	-1.741948e+02
2.500000e-07	-5.288310e-06	-2.714795e-09	-3.757391e+01	-1.741069e+02
2.600000e-07	-5.278649e-06	-2.648206e-09	-3.750527e+01	-1.740152e+02
2.700000e-07	-5.268394e-06	-2.641930e-09	-3.743240e+01	-1.739199e+02
2.800000e-07	-5.257723e-06	-2.721803e-09	-3.735659e+01	-1.738212e+02
2.900000e-07	-5.246533e-06	-2.661800e-09	-3.727708e+01	-1.737193e+02
3.000000e-07	-5.234992e-06	-2.575971e-09	-3.719508e+01	-1.736146e+02
3.100000e-07	-5.223126e-06	-2.648547e-09	-3.711077e+01	-1.735073e+02
3.200000e-07	-5.210739e-06	-2.725441e-09	-3.702276e+01	-1.733977e+02
3.300000e-07	-5.197912e-06	-2.640566e-09	-3.693162e+01	-1.732860e+02
3.400000e-07	-5.184817e-06	-2.592049e-09	-3.683858e+01	-1.731724e+02
3.500000e-07	-5.171423e-06	-2.664350e-09	-3.674342e+01	-1.730572e+02
3.600000e-07	-5.157592e-06	-2.675112e-09	-3.664515e+01	-1.729406e+02
3.700000e-07	-5.143270e-06	-2.616487e-09	-3.654339e+01	-1.728228e+02
3.800000e-07	-5.128463e-06	-2.628771e-09	-3.643819e+01	-1.727039e+02
3.900000e-07	-5.113003e-06	-2.657176e-09	-3.632834e+01	-1.725841e+02
4.000000e-07	-5.097042e-06	-2.643163e-09	-3.621494e+01	-1.724636e+02
4.100000e-07	-5.080675e-06	-2.662169e-09	-3.609865e+01	-1.723424e+02
4.200000e-07	-5.063836e-06	-2.664138e-09	-3.597900e+01	-1.722205e+02
4.300000e-07	-5.046729e-06	-2.613489e-09	-3.585746e+01	-1.720981e+02
4.400000e-07	-5.029332e-06	-2.601023e-09	-3.573385e+01	-1.719751e+02
4.500000e-07	-5.011687e-06	-2.659666e-09	-3.560848e+01	-1.718515e+02
4.600000e-07	-4.993778e-06	-2.644440e-09	-3.548124e+01	-1.717272e+02
4.700000e-07	-4.975503e-06	-2.605534e-09	-3.535139e+01	-1.716022e+02
4.800000e-07	-4.956771e-06	-2.615259e-09	-3.521830e+01	-1.714763e+02
4.900000e-07	-4.937571e-06	-2.647566e-09	-3.508188e+01	-1.713494e+02
5.000000e-07	-4.918099e-06	-2.625711e-09	-3.494353e+01	-1.712212e+02
5.100000e-07	-4.898553e-06	-2.603479e-09	-3.480465e+01	-1.710916e+02
5.200000e-07	-4.878823e-06	-2.586064e-09	-3.466447e+01	-1.709604e+02
5.300000e-07	-4.858786e-06	-2.603324e-09	-3.452210e+01	-1.708272e+02
5.400000e-07	-4.838383e-06	-2.620732e-09	-3.437714e+01	-1.706918e+02
5.500000e-07	-4.817656e-06	-2.610581e-09	-3.422987e+01	-1.705540e+02
5.600000e-07	-4.796607e-06	-2.580819e-09	-3.408032e+01	-1.704133e+02
5.700000e-07	-4.775221e-06	-2.601713e-09	-3.392837e+01	-1.702696e+02
5.800000e-07	-4.753563e-06	-2.621472e-09	-3.377449e+01	-1.701224e+02
5.900000e-07	-4.731567e-06	-2.599977e-09	-3.361820e+01	-1.699715e+02
6.000000e-07	-4.709265e-06	-2.569753e-09	-3.345975e+01	-1.698164e+02
6.100000e-07	-4.686584e-06	-2.575841e-09	-3.329859e+01	-1.696570e+02
6.200000e-07	-4.663479e-06	-2.589977e-09	-3.313443e+01	-1.694929e+02
6.300000e-07	-4.640151e-06	-2.594369e-09	-3.296869e+01	-1.693238e+02
6.400000e-07	-4.616641e-06	-2.579278e-09	-3.280164e+01	-1.691494e+02
6.500000e-07	-4.592865e-06	-2.562175e-09	-3.263272e+01	-1.689694e+02
6.600000e-07	-4.568868e-06	-2.570289e-09	-3.246221e+01	-1.687836e+02
6.700000e-07	-4.544635e-06	-2.582290e-09	-3.229004e+01	-1.685917e+02
6.800000e-07	-4.520012e-06	-2.564225e-09	-3.211509e+01	-1.683936e+02
6.900000e-07	-4.494838e-06	-2.539231e-09	-3.193623e+01	-1.681891e+02
7.000000e-07	-4.468985e-06	-2.548415e-09	-3.175254e+01	-1.679780e+02
7.100000e-07	-4.442520e-06	-2.560026e-09	-3.156450e+01	-1.677603e+02
7.200000e-07	-4.415652e-06	-2.552673e-09	-3.137360e+01	-1.675357e+02
7.300000e-07	-4.388571e-06	-2.533852e-09	-3.118119e+01	-1.673044e+02
7.400000e-07	-4.361208e-06	-2.532932e-09	-3.098677e+01	-1.670662e+02
7.500000e-07	-4.333559e-06	-2.538447e-09	-3.079032e+01	-1.668211e+02
7.600000e-07	-4.305734e-06	-2.536025e-09	-3.059262e+01	-1.665693e+02
7.700000e-07	-4.277697e-06	-2.514151e-09	-3.039341e+01	-1.663106e+02
7.800000e-07	-4.249459e-06	-2.506718e-09	-3.019278e+01	-1.660454e+02
7.900000e-07	-4.220899e-06	-2.512238e-09	-2.998986e+01	-1.657735e+02
8.000000e-07	-4.192021e-06	-2.513922e-09	-2.978468e+01	-1.654953e+02
8.100000e-07	-4.162871e-06	-2.498134e-09	-2.957757e+01	-1.652108e+02
8.200000e-07	-4.133399e-06	-2.492250e-09	-2.936817e+01	-1.649202e+02
8.300000e-07	-4.103717e-06	-2.494798e-09	-2.915728e+01	-1.646237e+02
8.400000e-07	-4.073773e-06	-2.498480e-09	-2.894452e+01	-1.643215e+02
8.500000e-07	-4.043493e-06	-2.487600e-09	-2.872938e+01	-1.640138e+02
8.600000e-07	-4.012926e-06	-2.476691e-09	-2.851220e+01	-1.637008e+02
8.700000e-07	-3.982091e-06	-2.473817e-09	-2.829311e+01	-1.633827e+02
8.800000e-07	-3.951058e-06	-2.477104e-09	-2.807261e+01	-1.630596e+02
8.900000e-07	-3.919843e-06	-2.468131e-09	-2.785083e+01	-1.627319e+02
9.000000e-07	-3.888353e-06	-2.455822e-09	-2.762710e+01	-1.623996e+02
9.100000e-07	-3.856648e-06	-2.453953e-09	-2.740183e+01	-1.620630e+02
9.200000e-07	-3.824853e-06	-2.463824e-09	-2.717592e+01	-1.617221e+02
9.300000e-07	-3.792828e-06	-2.464099e-09	-2.694838e+01	-1.613771e+02
9.400000e-07	-3.760470e-06	-2.451667e-09	-2.671847e+01	-1.610282e+02
9.500000e-07	-3.727777e-06	-2.441610e-09	-2.648618e+01	-1.606753e+02
9.600000e-07	-3.694729e-06	-2.439582e-09	-2.625138e+01	-1.603186e+02
9.700000e-07	-3.661220e-06	-2.435875e-09	-2.601329e+01	-1.599580e+02
9.800000e-07	-3.627217e-06	-2.423585e-09	-2.577170e+01	-1.595935e+02
9.900000e-07	-3.592800e-06	-2.416113e-09	-2.552716e+01	-1.592252e+02
1.000000e-06	-3.558085e-06	-2.419048e-09	-2.528051e+01	-1.588529e+02
1.010000e-06	-3.523118e-06	-2.424218e-09	-2.503206e+01	-1.584764e+02
1.020000e-06	-3.487853e-06	-2.417821e-09	-2.478151e+01	-1.580958e+02
1.030000e-06	-3.452390e-06	-2.405526e-09	-2.452954e+01	-1.577108e+02
1.040000e-06	-3.416792e-06	-2.396620e-09	-2.427661e+01	-1.573211e+02
1.050000e-06	-3.381050e-06	-2.393337e-09	-2.402266e+01	-1.569267e+02
1.060000e-06	-3.345141e-06	-2.382034e-09	-2.376752e+01	-1.565271e+02
1.070000e-06	-3.308963e-06	-2.369864e-09	-2.351048e+01	-1.561222e+02
1.080000e-06	-3.272575e-06	-2.363979e-09	-2.325194e+01	-1.557116e+02
1.090000e-06	-3.236039e-06	-2.366570e-09	-2.299234e+01	-1.552950e+02
1.100000e-06	-3.199187e-06	-2.360827e-09	-2.273051e+01	-1.548720e+02
1.110000e-06	-3.162041e-06	-2.347583e-09	-2.246658e+01	-1.544423e+02
1.120000e-06	-3.124700e-06	-2.334815e-09	-2.220127e+01	-1.540056e+02
1.130000e-06	-3.087173e-06	-2.329644e-09	-2.193464e+01	-1.535614e+02
1.140000e-06	-3.049487e-06	-2.323030e-09	-2.166687e+01	-1.531094e+02
1.150000e-06	-3.011644e-06	-2.312599e-09	-2.139799e+01	-1.526491e+02
1.160000e-06	-2.973602e-06	-2.302093e-09	-2.112770e+01	-1.521803e+02
1.170000e-06	-2.935270e-06	-2.296634e-09	-2.085536e+01	-1.517024e+02
1.180000e-06	-2.896685e-06	-2.290111e-09	-2.058120e+01	-1.512153e+02
1.190000e-06	-2.857942e-06	-2.279836e-09	-2.030593e+01	-1.507183e+02
1.200000e-06	-2.818998e-06	-2.267127e-09	-2.002923e+01	-1.502113e+02
1.210000e-06	-2.779817e-06	-2.258707e-09	-1.975085e+01	-1.496939e+02
1.220000e-06	-2.740412e-06	-2.253479e-09	-1.947087e+01	-1.491657e+02
1.230000e-06	-2.700856e-06	-2.248572e-09	-1.918982e+01	-1.486265e+02
1.240000e-06	-2.661181e-06	-2.238763e-09	-1.890792e+01	-1.480758e+02
1.250000e-06	-2.621414e-06	-2.227852e-09	-1.862538e+01	-1.475134e+02
1.260000e-06	-2.581613e-06	-2.219399e-09	-1.834259e+01	-1.469391e+02
1.270000e-06	-2.541727e-06	-2.209643e-09	-1.805919e+01	-1.463525e+02
1.280000e-06	-2.501736e-06	-2.199006e-09	-1.777505e+01	-1.457534e+02
1.290000e-06	-2.461547e-06	-2.186268e-09	-1.748951e+01	-1.451415e+02
1.300000e-06	-2.421157e-06	-2.175051e-09	-1.720254e+01	-1.445165e+02
1.310000e-06	-2.380587e-06	-2.166413e-09	-1.691428e+01	-1.438783e+02
1.320000e-06	-2.339786e-06	-2.158643e-09	-1.662439e+01	-1.432264e+02
1.330000e-06	-2.298713e-06	-2.148804e-09	-1.633256e+01	-1.425607e+02
1.340000e-06	-2.257350e-06	-2.140218e-09	-1.603867e+01	-1.418808e+02
1.350000e-06	-2.215791e-06	-2.129902e-09	-1.574339e+01	-1.411865e+02
1.360000e-06	-2.173911e-06	-2.116376e-09	-1.544583e+01	-1.404773e+02
1.370000e-06	-2.131661e-06	-2.099414e-09	-1.514564e+01	-1.397530e+02
1.380000e-06	-2.089112e-06	-2.083712e-09	-1.484332e+01	-1.390130e+02
1.390000e-06	-2.046229e-06	-2.071288e-09	-1.453864e+01	-1.382570e+02
1.400000e-06	-2.003168e-06	-2.061044e-09	-1.423269e+01	-1.374844e+02
1.410000e-06	-1.960149e-06	-2.050066e-09	-1.392704e+01	-1.366946e+02
1.420000e-06	-1.917092e-06	-2.039775e-09	-1.362111e+01	-1.358872e+02
1.430000e-06	-1.873846e-06	-2.029605e-09	-1.331384e+01	-1.350613e+02
1.440000e-06	-1.830446e-06	-2.016731e-09	-1.300548e+01	-1.342162e+02
1.450000e-06	-1.786889e-06	-1.998751e-09	-1.269600e+01	-1.333511e+02
1.460000e-06	-1.743169e-06	-1.980788e-09	-1.238537e+01	-1.324650e+02
1.470000e-06	-1.699400e-06	-1.966236e-09	-1.207439e+01	-1.315570e+02
1.480000e-06	-1.655602e-06	-1.954900e-09	-1.176320e+01	-1.306260e+02
1.490000e-06	-1.611770e-06	-1.940105e-09	-1.145177e+01	-1.296708e+02
1.500000e-06	-1.567827e-06	-1.923076e-09	-1.113955e+01	-1.286902e+02
1.510000e-06	-1.523761e-06	-1.906739e-09	-1.082646e+01	-1.276828e+02
1.520000e-06	-1.479637e-06	-1.888905e-09	-1.051295e+01	-1.266472e+02
1.530000e-06	-1.435442e-06	-1.867931e-09	-1.019894e+01	-1.255819e+02
1.540000e-06	-1.391166e-06	-1.847809e-09	-9.884358e+00	-1.244852e+02
1.550000e-06	-1.346782e-06	-1.830768e-09	-9.569006e+00	-1.233555e+02
1.560000e-06	-1.302281e-06	-1.814191e-09	-9.252823e+00	-1.221911e+02
1.570000e-06	-1.257714e-06	-1.795031e-09	-8.936171e+00	-1.209901e+02
1.580000e-06	-1.213119e-06	-1.771034e-09	-8.619318e+00	-1.197506e+02
1.590000e-06	-1.168473e-06	-1.745486e-09	-8.302105e+00	-1.184706e+02
1.600000e-06	-1.123728e-06	-1.723118e-09	-7.984186e+00	-1.171483e+02
1.610000e-06	-1.078849e-06	-1.703605e-09	-7.665319e+00	-1.157816e+02
1.620000e-06	-1.033811e-06	-1.681903e-09	-7.345318e+00	-1.143685e+02
1.630000e-06	-9.887469e-07	-1.658445e-09	-7.025134e+00	-1.129068e+02
1.640000e-06	-9.436510e-07	-1.637995e-09	-6.704724e+00	-1.113946e+02
1.650000e-06	-8.985013e-07	-1.615465e-09	-6.383931e+00	-1.098299e+02
1.660000e-06	-8.533343e-07	-1.585564e-09	-6.063016e+00	-1.082105e+02
1.670000e-06	-8.080124e-07	-1.554321e-09	-5.741000e+00	-1.065346e+02
1.680000e-06	-7.626144e-07	-1.527526e-09	-5.418443e+00	-1.048003e+02
1.690000e-06	-7.171705e-07	-1.503325e-09	-5.095560e+00	-1.030057e+02
1.700000e-06	-6.716488e-07	-1.475645e-09	-4.772125e+00	-1.011492e+02
1.710000e-06	-6.261162e-07	-1.446488e-09	-4.448611e+00	-9.922893e+01
1.720000e-06	-5.805850e-07	-1.419106e-09	-4.125108e+00	-9.724355e+01
1.730000e-06	-5.349974e-07	-1.393582e-09	-3.801204e+00	-9.519162e+01
1.740000e-06	-4.893584e-07	-1.362342e-09	-3.476935e+00	-9.307193e+01
1.750000e-06	-4.436552e-07	-1.323382e-09	-3.152209e+00	-9.088339e+01
1.760000e-06	-3.979248e-07	-1.282855e-09	-2.827291e+00	-8.862513e+01
1.770000e-06	-3.521877e-07	-1.248393e-09	-2.502325e+00	-8.629643e+01
1.780000e-06	-3.064487e-07	-1.215958e-09	-2.177345e+00	-8.389680e+01
1.790000e-06	-2.607041e-07	-1.181098e-09	-1.852326e+00	-8.142595e+01
1.800000e-06	-2.148860e-07	-1.144168e-09	-1.526784e+00	-7.888381e+01
1.810000e-06	-1.690618e-07	-1.108753e-09	-1.201199e+00	-7.627055e+01
1.820000e-06	-1.232946e-07	-1.073510e-09	-8.760193e-01	-7.358658e+01
1.830000e-06	-7.759535e-08	-1.031606e-09	-5.513219e-01	-7.083254e+01
1.840000e-06	-3.189148e-08	-9.856651e-10	-2.265918e-01	-6.800934e+01
1.850000e-06	1.385617e-08	-9.425037e-10	9.844930e-02	-6.511811e+01
1.860000e-06	5.963790e-08	-9.005702e-10	4.237326e-01	-6.216026e+01
1.870000e-06	1.055018e-07	-8.565699e-10	7.495995e-01	-5.913745e+01
1.880000e-06	1.513435e-07	-8.104714e-10	1.075309e+00	-5.605158e+01
1.890000e-06	1.970516e-07	-7.620765e-10	1.400069e+00	-5.290480e+01
1.900000e-06	2.426966e-07	-7.136769e-10	1.724381e+00	-4.969951e+01
1.910000e-06	2.884362e-07	-6.646489e-10	2.049365e+00	-4.643833e+01
1.920000e-06	3.342491e-07	-6.136352e-10	2.374870e+00	-4.312411e+01
1.930000e-06	3.800400e-07	-5.626700e-10	2.700218e+00	-3.975994e+01
1.940000e-06	4.257609e-07	-5.124641e-10	3.025069e+00	-3.634908e+01
1.950000e-06	4.714580e-07	-4.604594e-10	3.349751e+00	-3.289499e+01
1.960000e-06	5.171061e-07	-4.072320e-10	3.674085e+00	-2.940133e+01
1.970000e-06	5.626616e-07	-3.535602e-10	3.997761e+00	-2.587189e+01
1.980000e-06	6.081947e-07	-2.982072e-10	4.321278e+00	-2.231063e+01
1.990000e-06	6.536389e-07	-2.408647e-10	4.644162e+00	-1.872163e+01
2.000000e-06	6.990639e-07	-1.836147e-10	4.966911e+00	-1.510905e+01
2.010000e-06	7.445424e-07	-1.272028e-10	5.290040e+00	-1.147719e+01
2.020000e-06	7.899941e-07	-7.264909e-11	5.612978e+00	-7.830381e+00
2.030000e-06	8.354397e-07	-2.081057e-11	5.935873e+00	-4.173017e+00
2.040000e-06	8.807820e-07	2.828334e-11	6.258034e+00	-5.095163e-01
2.050000e-06	9.259148e-07	7.854021e-11	6.578707e+00	3.155694e+00
2.060000e-06	9.709622e-07	1.333298e-10	6.898772e+00	6.818200e+00
2.070000e-06	1.015909e-06	1.924894e-10	7.218122e+00	1.047363e+01
2.080000e-06	1.060678e-06	2.498938e-10	7.536208e+00	1.411765e+01
2.090000e-06	1.105458e-06	3.040718e-10	7.854380e+00	1.774601e+01
2.100000e-06	1.150297e-06	3.563390e-10	8.172963e+00	2.135457e+01
2.110000e-06	1.194967e-06	4.064281e-10	8.490348e+00	2.493928e+01
2.120000e-06	1.239497e-06	4.527790e-10	8.806735e+00	2.849622e+01
2.130000e-06	1.283979e-06	5.001296e-10	9.122787e+00	3.202164e+01
2.140000e-06	1.328377e-06	5.510111e-10	9.438234e+00	3.551192e+01
2.150000e-06	1.372696e-06	6.047816e-10	9.753130e+00	3.896365e+01
2.160000e-06	1.416882e-06	6.557028e-10	1.006707e+01	4.237358e+01
2.170000e-06	1.460963e-06	7.028748e-10	1.038027e+01	4.573868e+01
2.180000e-06	1.505065e-06	7.476207e-10	1.069362e+01	4.905613e+01
2.190000e-06	1.549107e-06	7.876264e-10	1.100654e+01	5.232331e+01
2.200000e-06	1.593088e-06	8.280372e-10	1.131903e+01	5.553784e+01
2.210000e-06	1.637023e-06	8.721373e-10	1.163119e+01	5.869758e+01
2.220000e-06	1.680840e-06	9.210576e-10	1.194252e+01	6.180062e+01
2.230000e-06	1.724589e-06	9.696541e-10	1.225336e+01	6.484527e+01
2.240000e-06	1.768246e-06	1.012982e-09	1.256354e+01	6.783011e+01
2.250000e-06	1.811849e-06	1.048618e-09	1.287335e+01	7.075391e+01
2.260000e-06	1.855377e-06	1.082294e-09	1.318262e+01	7.361572e+01
2.270000e-06	1.898789e-06	1.116162e-09	1.349106e+01	7.641480e+01
2.280000e-06	1.942173e-06	1.153922e-09	1.379931e+01	7.915063e+01
2.290000e-06	1.985450e-06	1.198034e-09	1.410680e+01	8.182290e+01
2.300000e-06	2.028543e-06	1.245922e-09	1.441298e+01	8.443154e+01
2.310000e-06	2.071434e-06	1.289067e-09	1.471772e+01	8.697664e+01
2.320000e-06	2.113940e-06	1.324642e-09	1.501973e+01	8.945851e+01
2.330000e-06	2.156105e-06	1.353236e-09	1.531932e+01	9.187761e+01
2.340000e-06	2.198036e-06	1.376124e-09	1.561724e+01	9.423460e+01
2.350000e-06	2.239684e-06	1.398491e-09	1.591315e+01	9.653025e+01
2.360000e-06	2.281059e-06	1.427928e-09	1.620713e+01	9.876550e+01
2.370000e-06	2.322095e-06	1.467162e-09	1.649869e+01	1.009414e+02
2.380000e-06	2.362787e-06	1.509751e-09	1.678781e+01	1.030591e+02
2.390000e-06	2.403275e-06	1.548745e-09	1.707548e+01	1.051199e+02
2.400000e-06	2.443627e-06	1.581698e-09	1.736219e+01	1.071252e+02
2.410000e-06	2.483772e-06	1.606885e-09	1.764742e+01	1.090763e+02
2.420000e-06	2.523756e-06	1.625519e-09	1.793151e+01	1.109746e+02
2.430000e-06	2.563657e-06	1.643734e-09	1.821501e+01	1.128218e+02
2.440000e-06	2.603454e-06	1.668751e-09	1.849778e+01	1.146194e+02
2.450000e-06	2.643179e-06	1.703540e-09	1.878002e+01	1.163688e+02
2.460000e-06	2.682796e-06	1.740177e-09	1.906150e+01	1.180717e+02
2.470000e-06	2.722293e-06	1.773462e-09	1.934213e+01	1.197295e+02
2.480000e-06	2.761739e-06	1.804639e-09	1.962240e+01	1.213438e+02
2.490000e-06	2.801018e-06	1.831817e-09	1.990148e+01	1.229162e+02
2.500000e-06	2.840012e-06	1.851283e-09	2.017854e+01	1.244479e+02
2.510000e-06	2.878745e-06	1.866223e-09	2.045374e+01	1.259404e+02
2.520000e-06	2.917224e-06	1.882553e-09	2.072714e+01	1.273951e+02
2.530000e-06	2.955507e-06	1.905468e-09	2.099914e+01	1.288133e+02
2.540000e-06	2.993640e-06	1.931307e-09	2.127008e+01	1.301961e+02
2.550000e-06	3.031600e-06	1.957458e-09	2.153979e+01	1.315448e+02
2.560000e-06	3.069336e-06	1.983094e-09	2.180791e+01	1.328604e+02
2.570000e-06	3.106790e-06	2.005695e-09	2.207402e+01	1.341439e+02
2.580000e-06	3.144042e-06	2.024936e-09	2.233870e+01	1.353962e+02
2.590000e-06	3.181219e-06	2.041785e-09	2.260284e+01	1.366182e+02
2.600000e-06	3.218192e-06	2.056216e-09	2.286554e+01	1.378107e+02
2.610000e-06	3.254898e-06	2.071336e-09	2.312634e+01	1.389744e+02
2.620000e-06	3.291316e-06	2.089462e-09	2.338509e+01	1.401100e+02
2.630000e-06	3.327463e-06	2.107608e-09	2.364192e+01	1.412180e+02
2.640000e-06	3.363468e-06	2.123967e-09	2.389774e+01	1.422989e+02
2.650000e-06	3.399328e-06	2.140983e-09	2.415253e+01	1.433533e+02
2.660000e-06	3.435095e-06	2.158396e-09	2.440665e+01	1.443815e+02
2.670000e-06	3.470750e-06	2.174307e-09	2.465999e+01	1.453839e+02
2.680000e-06	3.506209e-06	2.189862e-09	2.491193e+01	1.463608e+02
2.690000e-06	3.541400e-06	2.206652e-09	2.516196e+01	1.473125e+02
2.700000e-06	3.576281e-06	2.222666e-09	2.540980e+01	1.482394e+02
2.710000e-06	3.610937e-06	2.236015e-09	2.565603e+01	1.491415e+02
2.720000e-06	3.645349e-06	2.247956e-09	2.590052e+01	1.500192e+02
2.730000e-06	3.679238e-06	2.259998e-09	2.614131e+01	1.508726e+02
2.740000e-06	3.712501e-06	2.271436e-09	2.637765e+01	1.517020e+02
2.750000e-06	3.745271e-06	2.283303e-09	2.661048e+01	1.525076e+02
2.760000e-06	3.777632e-06	2.297452e-09	2.684041e+01	1.532896e+02
2.770000e-06	3.809691e-06	2.311045e-09	2.706819e+01	1.540482e+02
2.780000e-06	3.841600e-06	2.321468e-09	2.729491e+01	1.547837e+02
2.790000e-06	3.873408e-06	2.329632e-09	2.752091e+01	1.554963e+02
2.800000e-06	3.905058e-06	2.337204e-09	2.774579e+01	1.561862e+02
2.810000e-06	3.936588e-06	2.343609e-09	2.796981e+01	1.568539e+02
2.820000e-06	3.967932e-06	2.349740e-09	2.819251e+01	1.574996e+02
2.830000e-06	3.999005e-06	2.360080e-09	2.841328e+01	1.581237e+02
2.840000e-06	4.029715e-06	2.375188e-09	2.863148e+01	1.587265e+02
2.850000e-06	4.060069e-06	2.389194e-09	2.884715e+01	1.593086e+02
2.860000e-06	4.090090e-06	2.399304e-09	2.906045e+01	1.598703e+02
2.870000e-06	4.119881e-06	2.407383e-09	2.927212e+01	1.604121e+02
2.880000e-06	4.149479e-06	2.413807e-09	2.948241e+01	1.609345e+02
2.890000e-06	4.178718e-06	2.418640e-09	2.969016e+01	1.614381e+02
2.900000e-06	4.207701e-06	2.424786e-09	2.989609e+01	1.619233e+02
