# Temperatura_=_24.7
# Concentracion g/m^3_=_4090.0
# C_Vs_to_Am_M_A/Vsm_=_65563218390.804596
# pendiente_HvsI_1/m_=_3716.3
# ordenada_HvsI_A/m_=_1297.0
# frecuencia_Hz_=_135090.79823776172

Tiempo_(s)	Campo_(V.s)	Magnetizacion_(V.s)	Campo_(kA/m)	Magnetizacion_(A/m)
0.000000e+00	-5.429282e-06	-2.682518e-09	-3.838943e+01	-1.745977e+02
1.000000e-08	-5.429587e-06	-2.678388e-09	-3.839159e+01	-1.746175e+02
2.000000e-08	-5.429689e-06	-2.668899e-09	-3.839231e+01	-1.746320e+02
3.000000e-08	-5.429421e-06	-2.663327e-09	-3.839042e+01	-1.746411e+02
4.000000e-08	-5.428683e-06	-2.666291e-09	-3.838520e+01	-1.746445e+02
5.000000e-08	-5.427336e-06	-2.667918e-09	-3.837568e+01	-1.746420e+02
6.000000e-08	-5.425359e-06	-2.659725e-09	-3.836169e+01	-1.746333e+02
7.000000e-08	-5.422816e-06	-2.662181e-09	-3.834371e+01	-1.746183e+02
8.000000e-08	-5.419725e-06	-2.694338e-09	-3.832185e+01	-1.745968e+02
9.000000e-08	-5.416187e-06	-2.730583e-09	-3.829684e+01	-1.745688e+02
1.000000e-07	-5.412133e-06	-2.727110e-09	-3.826817e+01	-1.745342e+02
1.100000e-07	-5.407709e-06	-2.661575e-09	-3.823689e+01	-1.744930e+02
1.200000e-07	-5.403223e-06	-2.615078e-09	-3.820517e+01	-1.744451e+02
1.300000e-07	-5.398555e-06	-2.678829e-09	-3.817217e+01	-1.743907e+02
1.400000e-07	-5.393414e-06	-2.681379e-09	-3.813582e+01	-1.743298e+02
1.500000e-07	-5.387786e-06	-2.631820e-09	-3.809602e+01	-1.742625e+02
1.600000e-07	-5.381844e-06	-2.578934e-09	-3.805401e+01	-1.741891e+02
1.700000e-07	-5.375598e-06	-2.685026e-09	-3.800985e+01	-1.741096e+02
1.800000e-07	-5.368849e-06	-2.765729e-09	-3.796212e+01	-1.740243e+02
1.900000e-07	-5.361774e-06	-2.690457e-09	-3.791210e+01	-1.739336e+02
2.000000e-07	-5.354550e-06	-2.610218e-09	-3.786102e+01	-1.738376e+02
2.100000e-07	-5.347081e-06	-2.639361e-09	-3.780820e+01	-1.737368e+02
2.200000e-07	-5.339305e-06	-2.693580e-09	-3.775322e+01	-1.736314e+02
2.300000e-07	-5.331253e-06	-2.625838e-09	-3.769629e+01	-1.735218e+02
2.400000e-07	-5.322909e-06	-2.606540e-09	-3.763729e+01	-1.734083e+02
2.500000e-07	-5.313974e-06	-2.655797e-09	-3.757411e+01	-1.732915e+02
2.600000e-07	-5.304195e-06	-2.691527e-09	-3.750497e+01	-1.731716e+02
2.700000e-07	-5.293757e-06	-2.631404e-09	-3.743116e+01	-1.730490e+02
2.800000e-07	-5.282872e-06	-2.641953e-09	-3.735420e+01	-1.729242e+02
2.900000e-07	-5.271502e-06	-2.654623e-09	-3.727380e+01	-1.727976e+02
3.000000e-07	-5.259708e-06	-2.622560e-09	-3.719041e+01	-1.726694e+02
3.100000e-07	-5.247574e-06	-2.597809e-09	-3.710461e+01	-1.725401e+02
3.200000e-07	-5.235079e-06	-2.661950e-09	-3.701626e+01	-1.724100e+02
3.300000e-07	-5.222139e-06	-2.664950e-09	-3.692476e+01	-1.722794e+02
3.400000e-07	-5.208847e-06	-2.608894e-09	-3.683078e+01	-1.721485e+02
3.500000e-07	-5.195203e-06	-2.604391e-09	-3.673430e+01	-1.720178e+02
3.600000e-07	-5.181136e-06	-2.647244e-09	-3.663484e+01	-1.718873e+02
3.700000e-07	-5.166718e-06	-2.622899e-09	-3.653290e+01	-1.717573e+02
3.800000e-07	-5.151834e-06	-2.600420e-09	-3.642765e+01	-1.716278e+02
3.900000e-07	-5.136192e-06	-2.620378e-09	-3.631705e+01	-1.714991e+02
4.000000e-07	-5.119824e-06	-2.630400e-09	-3.620131e+01	-1.713712e+02
4.100000e-07	-5.103072e-06	-2.618744e-09	-3.608287e+01	-1.712441e+02
4.200000e-07	-5.086054e-06	-2.627627e-09	-3.596253e+01	-1.711177e+02
4.300000e-07	-5.068813e-06	-2.619918e-09	-3.584062e+01	-1.709921e+02
4.400000e-07	-5.051326e-06	-2.585685e-09	-3.571698e+01	-1.708671e+02
4.500000e-07	-5.033513e-06	-2.603502e-09	-3.559103e+01	-1.707426e+02
4.600000e-07	-5.015351e-06	-2.622701e-09	-3.546260e+01	-1.706183e+02
4.700000e-07	-4.996841e-06	-2.607932e-09	-3.533172e+01	-1.704942e+02
4.800000e-07	-4.977963e-06	-2.588634e-09	-3.519824e+01	-1.703698e+02
4.900000e-07	-4.958689e-06	-2.615438e-09	-3.506196e+01	-1.702450e+02
5.000000e-07	-4.939127e-06	-2.611769e-09	-3.492364e+01	-1.701195e+02
5.100000e-07	-4.919392e-06	-2.597883e-09	-3.478410e+01	-1.699928e+02
5.200000e-07	-4.899474e-06	-2.577960e-09	-3.464326e+01	-1.698647e+02
5.300000e-07	-4.879330e-06	-2.579517e-09	-3.450082e+01	-1.697348e+02
5.400000e-07	-4.858822e-06	-2.585650e-09	-3.435582e+01	-1.696027e+02
5.500000e-07	-4.837879e-06	-2.604406e-09	-3.420774e+01	-1.694679e+02
5.600000e-07	-4.816534e-06	-2.586348e-09	-3.405681e+01	-1.693303e+02
5.700000e-07	-4.794817e-06	-2.583428e-09	-3.390325e+01	-1.691892e+02
5.800000e-07	-4.772768e-06	-2.595488e-09	-3.374735e+01	-1.690444e+02
5.900000e-07	-4.750509e-06	-2.595235e-09	-3.358996e+01	-1.688955e+02
6.000000e-07	-4.727953e-06	-2.567023e-09	-3.343047e+01	-1.687422e+02
6.100000e-07	-4.705033e-06	-2.564245e-09	-3.326841e+01	-1.685840e+02
6.200000e-07	-4.681805e-06	-2.569125e-09	-3.310416e+01	-1.684208e+02
6.300000e-07	-4.658337e-06	-2.575326e-09	-3.293822e+01	-1.682521e+02
6.400000e-07	-4.634695e-06	-2.573185e-09	-3.277106e+01	-1.680778e+02
6.500000e-07	-4.610771e-06	-2.562094e-09	-3.260189e+01	-1.678977e+02
6.600000e-07	-4.586635e-06	-2.551307e-09	-3.243123e+01	-1.677115e+02
6.700000e-07	-4.562271e-06	-2.559120e-09	-3.225896e+01	-1.675191e+02
6.800000e-07	-4.537343e-06	-2.558772e-09	-3.208270e+01	-1.673204e+02
6.900000e-07	-4.511768e-06	-2.539475e-09	-3.190186e+01	-1.671152e+02
7.000000e-07	-4.485635e-06	-2.532731e-09	-3.171708e+01	-1.669037e+02
7.100000e-07	-4.458962e-06	-2.540733e-09	-3.152848e+01	-1.666857e+02
7.200000e-07	-4.431888e-06	-2.542253e-09	-3.133705e+01	-1.664612e+02
7.300000e-07	-4.404492e-06	-2.531023e-09	-3.114334e+01	-1.662305e+02
7.400000e-07	-4.376831e-06	-2.524663e-09	-3.094775e+01	-1.659935e+02
7.500000e-07	-4.349038e-06	-2.523022e-09	-3.075123e+01	-1.657504e+02
7.600000e-07	-4.321150e-06	-2.528625e-09	-3.055404e+01	-1.655013e+02
7.700000e-07	-4.293118e-06	-2.517444e-09	-3.035583e+01	-1.652465e+02
7.800000e-07	-4.264764e-06	-2.504996e-09	-3.015535e+01	-1.649862e+02
7.900000e-07	-4.235980e-06	-2.499121e-09	-2.995182e+01	-1.647205e+02
8.000000e-07	-4.206875e-06	-2.504076e-09	-2.974602e+01	-1.644497e+02
8.100000e-07	-4.177448e-06	-2.498539e-09	-2.953795e+01	-1.641741e+02
8.200000e-07	-4.147777e-06	-2.493216e-09	-2.932815e+01	-1.638939e+02
8.300000e-07	-4.117834e-06	-2.487156e-09	-2.911643e+01	-1.636094e+02
8.400000e-07	-4.087595e-06	-2.488303e-09	-2.890261e+01	-1.633208e+02
8.500000e-07	-4.057088e-06	-2.481189e-09	-2.868691e+01	-1.630284e+02
8.600000e-07	-4.026284e-06	-2.473568e-09	-2.846910e+01	-1.627323e+02
8.700000e-07	-3.995156e-06	-2.463954e-09	-2.824900e+01	-1.624329e+02
8.800000e-07	-3.963797e-06	-2.462599e-09	-2.802727e+01	-1.621303e+02
8.900000e-07	-3.932296e-06	-2.459129e-09	-2.780453e+01	-1.618246e+02
9.000000e-07	-3.900659e-06	-2.455971e-09	-2.758083e+01	-1.615160e+02
9.100000e-07	-3.868749e-06	-2.448892e-09	-2.735520e+01	-1.612047e+02
9.200000e-07	-3.836628e-06	-2.445202e-09	-2.712808e+01	-1.608906e+02
9.300000e-07	-3.804435e-06	-2.440237e-09	-2.690045e+01	-1.605738e+02
9.400000e-07	-3.771840e-06	-2.432854e-09	-2.666997e+01	-1.602544e+02
9.500000e-07	-3.738841e-06	-2.423336e-09	-2.643664e+01	-1.599322e+02
9.600000e-07	-3.705508e-06	-2.417360e-09	-2.620095e+01	-1.596071e+02
9.700000e-07	-3.671625e-06	-2.412634e-09	-2.596137e+01	-1.592792e+02
9.800000e-07	-3.637193e-06	-2.407738e-09	-2.571791e+01	-1.589481e+02
9.900000e-07	-3.602479e-06	-2.404538e-09	-2.547245e+01	-1.586137e+02
1.000000e-06	-3.567499e-06	-2.400884e-09	-2.522512e+01	-1.582757e+02
1.010000e-06	-3.532172e-06	-2.398355e-09	-2.497532e+01	-1.579338e+02
1.020000e-06	-3.496584e-06	-2.394386e-09	-2.472369e+01	-1.575879e+02
1.030000e-06	-3.460885e-06	-2.389017e-09	-2.447127e+01	-1.572374e+02
1.040000e-06	-3.425159e-06	-2.382673e-09	-2.421865e+01	-1.568820e+02
1.050000e-06	-3.389290e-06	-2.378313e-09	-2.396503e+01	-1.565213e+02
1.060000e-06	-3.353149e-06	-2.368514e-09	-2.370949e+01	-1.561549e+02
1.070000e-06	-3.316765e-06	-2.359938e-09	-2.345222e+01	-1.557823e+02
1.080000e-06	-3.280206e-06	-2.354123e-09	-2.319372e+01	-1.554031e+02
1.090000e-06	-3.243397e-06	-2.351186e-09	-2.293345e+01	-1.550169e+02
1.100000e-06	-3.206284e-06	-2.339932e-09	-2.267103e+01	-1.546231e+02
1.110000e-06	-3.168924e-06	-2.329423e-09	-2.240687e+01	-1.542212e+02
1.120000e-06	-3.131422e-06	-2.324800e-09	-2.214170e+01	-1.538109e+02
1.130000e-06	-3.093713e-06	-2.324597e-09	-2.187506e+01	-1.533917e+02
1.140000e-06	-3.055757e-06	-2.315689e-09	-2.160668e+01	-1.529631e+02
1.150000e-06	-3.017591e-06	-2.304178e-09	-2.133682e+01	-1.525246e+02
1.160000e-06	-2.979249e-06	-2.295244e-09	-2.106571e+01	-1.520760e+02
1.170000e-06	-2.940747e-06	-2.289238e-09	-2.079347e+01	-1.516167e+02
1.180000e-06	-2.901907e-06	-2.277323e-09	-2.051884e+01	-1.511464e+02
1.190000e-06	-2.862739e-06	-2.263466e-09	-2.024189e+01	-1.506649e+02
1.200000e-06	-2.823449e-06	-2.252874e-09	-1.996408e+01	-1.501717e+02
1.210000e-06	-2.784056e-06	-2.248576e-09	-1.968554e+01	-1.496665e+02
1.220000e-06	-2.744539e-06	-2.242126e-09	-1.940612e+01	-1.491493e+02
1.230000e-06	-2.704953e-06	-2.232829e-09	-1.912622e+01	-1.486196e+02
1.240000e-06	-2.665196e-06	-2.223967e-09	-1.884510e+01	-1.480773e+02
1.250000e-06	-2.625297e-06	-2.219544e-09	-1.856298e+01	-1.475222e+02
1.260000e-06	-2.585332e-06	-2.213958e-09	-1.828040e+01	-1.469542e+02
1.270000e-06	-2.545265e-06	-2.201744e-09	-1.799709e+01	-1.463731e+02
1.280000e-06	-2.505085e-06	-2.188459e-09	-1.771298e+01	-1.457788e+02
1.290000e-06	-2.464700e-06	-2.176743e-09	-1.742743e+01	-1.451711e+02
1.300000e-06	-2.424083e-06	-2.167491e-09	-1.714024e+01	-1.445500e+02
1.310000e-06	-2.383224e-06	-2.157143e-09	-1.685133e+01	-1.439154e+02
1.320000e-06	-2.342083e-06	-2.149164e-09	-1.656043e+01	-1.432670e+02
1.330000e-06	-2.300671e-06	-2.145281e-09	-1.626761e+01	-1.426049e+02
1.340000e-06	-2.259067e-06	-2.140888e-09	-1.597344e+01	-1.419287e+02
1.350000e-06	-2.217064e-06	-2.129299e-09	-1.567645e+01	-1.412383e+02
1.360000e-06	-2.174646e-06	-2.114904e-09	-1.537652e+01	-1.405335e+02
1.370000e-06	-2.131959e-06	-2.100390e-09	-1.507468e+01	-1.398140e+02
1.380000e-06	-2.088985e-06	-2.086857e-09	-1.477082e+01	-1.390795e+02
1.390000e-06	-2.045928e-06	-2.072115e-09	-1.446637e+01	-1.383296e+02
1.400000e-06	-2.002740e-06	-2.061045e-09	-1.416100e+01	-1.375638e+02
1.410000e-06	-1.959332e-06	-2.054438e-09	-1.385407e+01	-1.367816e+02
1.420000e-06	-1.915834e-06	-2.045896e-09	-1.354650e+01	-1.359825e+02
1.430000e-06	-1.872254e-06	-2.034127e-09	-1.323835e+01	-1.351656e+02
1.440000e-06	-1.828553e-06	-2.022151e-09	-1.292936e+01	-1.343303e+02
1.450000e-06	-1.784774e-06	-2.006914e-09	-1.261980e+01	-1.334756e+02
1.460000e-06	-1.740954e-06	-1.990457e-09	-1.230996e+01	-1.326006e+02
1.470000e-06	-1.697108e-06	-1.972426e-09	-1.199994e+01	-1.317041e+02
1.480000e-06	-1.653194e-06	-1.955053e-09	-1.168943e+01	-1.307851e+02
1.490000e-06	-1.609156e-06	-1.939793e-09	-1.137804e+01	-1.298422e+02
1.500000e-06	-1.565019e-06	-1.925347e-09	-1.106595e+01	-1.288740e+02
1.510000e-06	-1.520815e-06	-1.908099e-09	-1.075340e+01	-1.278791e+02
1.520000e-06	-1.476569e-06	-1.887881e-09	-1.044054e+01	-1.268557e+02
1.530000e-06	-1.432198e-06	-1.867682e-09	-1.012680e+01	-1.258023e+02
1.540000e-06	-1.387690e-06	-1.849407e-09	-9.812095e+00	-1.247170e+02
1.550000e-06	-1.343140e-06	-1.829314e-09	-9.497089e+00	-1.235980e+02
1.560000e-06	-1.298471e-06	-1.807504e-09	-9.181246e+00	-1.224433e+02
1.570000e-06	-1.253711e-06	-1.786436e-09	-8.864757e+00	-1.212508e+02
1.580000e-06	-1.208951e-06	-1.767801e-09	-8.548264e+00	-1.200185e+02
1.590000e-06	-1.164021e-06	-1.748004e-09	-8.230575e+00	-1.187442e+02
1.600000e-06	-1.118970e-06	-1.723630e-09	-7.912024e+00	-1.174258e+02
1.610000e-06	-1.073867e-06	-1.700388e-09	-7.593109e+00	-1.160611e+02
1.620000e-06	-1.028530e-06	-1.680685e-09	-7.272543e+00	-1.146478e+02
1.630000e-06	-9.831211e-07	-1.660339e-09	-6.951465e+00	-1.131836e+02
1.640000e-06	-9.377573e-07	-1.636169e-09	-6.630706e+00	-1.116665e+02
1.650000e-06	-8.923157e-07	-1.609506e-09	-6.309397e+00	-1.100943e+02
1.660000e-06	-8.467927e-07	-1.583640e-09	-5.987512e+00	-1.084647e+02
1.670000e-06	-8.012372e-07	-1.558528e-09	-5.665398e+00	-1.067758e+02
1.680000e-06	-7.555518e-07	-1.529671e-09	-5.342365e+00	-1.050256e+02
1.690000e-06	-7.097826e-07	-1.499070e-09	-5.018739e+00	-1.032123e+02
1.700000e-06	-6.640290e-07	-1.471616e-09	-4.695224e+00	-1.013339e+02
1.710000e-06	-6.182305e-07	-1.445286e-09	-4.371392e+00	-9.938897e+01
1.720000e-06	-5.724105e-07	-1.416569e-09	-4.047407e+00	-9.737595e+01
1.730000e-06	-5.266139e-07	-1.386015e-09	-3.723588e+00	-9.529354e+01
1.740000e-06	-4.807583e-07	-1.353590e-09	-3.399351e+00	-9.314057e+01
1.750000e-06	-4.348128e-07	-1.318518e-09	-3.074480e+00	-9.091610e+01
1.760000e-06	-3.888629e-07	-1.280541e-09	-2.749576e+00	-8.861936e+01
1.770000e-06	-3.428538e-07	-1.243763e-09	-2.424255e+00	-8.624983e+01
1.780000e-06	-2.968213e-07	-1.211130e-09	-2.098768e+00	-8.380718e+01
1.790000e-06	-2.508155e-07	-1.182421e-09	-1.773469e+00	-8.129134e+01
1.800000e-06	-2.048474e-07	-1.149624e-09	-1.448437e+00	-7.870249e+01
1.810000e-06	-1.588850e-07	-1.111842e-09	-1.123446e+00	-7.604103e+01
1.820000e-06	-1.128485e-07	-1.070411e-09	-7.979304e-01	-7.330764e+01
1.830000e-06	-6.685487e-08	-1.026226e-09	-4.727183e-01	-7.050326e+01
1.840000e-06	-2.092381e-08	-9.807863e-10	-1.479483e-01	-6.762908e+01
1.850000e-06	2.506354e-08	-9.365084e-10	1.772196e-01	-6.468655e+01
1.860000e-06	7.111440e-08	-8.931899e-10	5.028366e-01	-6.167739e+01
1.870000e-06	1.171468e-07	-8.537834e-10	8.283228e-01	-5.860358e+01
1.880000e-06	1.631641e-07	-8.136862e-10	1.153703e+00	-5.546732e+01
1.890000e-06	2.092735e-07	-7.648358e-10	1.479734e+00	-5.227110e+01
1.900000e-06	2.552995e-07	-7.123804e-10	1.805175e+00	-4.901761e+01
1.910000e-06	3.012656e-07	-6.624974e-10	2.130193e+00	-4.570979e+01
1.920000e-06	3.472593e-07	-6.131974e-10	2.455405e+00	-4.235078e+01
1.930000e-06	3.932127e-07	-5.584069e-10	2.780333e+00	-3.894392e+01
1.940000e-06	4.391249e-07	-5.022571e-10	3.104970e+00	-3.549276e+01
1.950000e-06	4.849622e-07	-4.538669e-10	3.429077e+00	-3.200100e+01
1.960000e-06	5.308026e-07	-4.095713e-10	3.753206e+00	-2.847249e+01
1.970000e-06	5.766192e-07	-3.584290e-10	4.077166e+00	-2.491125e+01
1.980000e-06	6.222760e-07	-2.985421e-10	4.399997e+00	-2.132139e+01
1.990000e-06	6.679027e-07	-2.371935e-10	4.722615e+00	-1.770714e+01
2.000000e-06	7.135574e-07	-1.793379e-10	5.045430e+00	-1.407278e+01
2.010000e-06	7.590926e-07	-1.232111e-10	5.367401e+00	-1.042268e+01
2.020000e-06	8.045981e-07	-6.639777e-11	5.689162e+00	-6.761243e+00
2.030000e-06	8.500963e-07	-1.218782e-11	6.010871e+00	-3.092880e+00
2.040000e-06	8.955374e-07	3.694103e-11	6.332177e+00	5.779931e-01
2.050000e-06	9.409290e-07	8.774362e-11	6.653133e+00	4.246985e+00
2.060000e-06	9.862728e-07	1.451146e-10	6.973750e+00	7.909748e+00
2.070000e-06	1.031461e-06	2.057666e-10	7.293266e+00	1.156200e+01
2.080000e-06	1.076583e-06	2.609678e-10	7.612316e+00	1.519953e+01
2.090000e-06	1.121732e-06	3.127141e-10	7.931560e+00	1.881824e+01
2.100000e-06	1.166799e-06	3.664955e-10	8.250220e+00	2.241414e+01
2.110000e-06	1.211704e-06	4.197318e-10	8.567730e+00	2.598339e+01
2.120000e-06	1.256459e-06	4.672173e-10	8.884185e+00	2.952228e+01
2.130000e-06	1.301115e-06	5.137068e-10	9.199942e+00	3.302728e+01
2.140000e-06	1.345729e-06	5.642728e-10	9.515398e+00	3.649502e+01
2.150000e-06	1.390281e-06	6.172661e-10	9.830416e+00	3.992233e+01
2.160000e-06	1.434668e-06	6.677416e-10	1.014427e+01	4.330624e+01
2.170000e-06	1.478958e-06	7.154830e-10	1.045743e+01	4.664397e+01
2.180000e-06	1.523193e-06	7.632349e-10	1.077021e+01	4.993298e+01
2.190000e-06	1.567347e-06	8.084304e-10	1.108241e+01	5.317092e+01
2.200000e-06	1.611433e-06	8.495549e-10	1.139414e+01	5.635568e+01
2.210000e-06	1.655508e-06	8.905390e-10	1.170579e+01	5.948538e+01
2.220000e-06	1.699506e-06	9.350357e-10	1.201689e+01	6.255834e+01
2.230000e-06	1.743376e-06	9.808200e-10	1.232709e+01	6.557312e+01
2.240000e-06	1.787147e-06	1.024156e-09	1.263658e+01	6.852852e+01
2.250000e-06	1.830831e-06	1.065898e-09	1.294546e+01	7.142352e+01
2.260000e-06	1.874500e-06	1.107806e-09	1.325424e+01	7.425735e+01
2.270000e-06	1.918110e-06	1.149251e-09	1.356260e+01	7.702943e+01
2.280000e-06	1.961540e-06	1.189964e-09	1.386968e+01	7.973939e+01
2.290000e-06	2.004918e-06	1.228921e-09	1.417640e+01	8.238703e+01
2.300000e-06	2.048292e-06	1.267466e-09	1.448309e+01	8.497237e+01
2.310000e-06	2.091395e-06	1.305037e-09	1.478786e+01	8.749556e+01
2.320000e-06	2.134132e-06	1.338675e-09	1.509004e+01	8.995695e+01
2.330000e-06	2.176741e-06	1.367530e-09	1.539132e+01	9.235702e+01
2.340000e-06	2.219092e-06	1.398020e-09	1.569078e+01	9.469639e+01
2.350000e-06	2.261008e-06	1.432806e-09	1.598716e+01	9.697580e+01
2.360000e-06	2.302717e-06	1.468090e-09	1.628208e+01	9.919613e+01
2.370000e-06	2.344221e-06	1.500802e-09	1.657555e+01	1.013583e+02
2.380000e-06	2.385458e-06	1.531727e-09	1.686712e+01	1.034634e+02
2.390000e-06	2.426269e-06	1.562561e-09	1.715569e+01	1.055126e+02
2.400000e-06	2.466736e-06	1.591827e-09	1.744183e+01	1.075070e+02
2.410000e-06	2.507008e-06	1.618244e-09	1.772658e+01	1.094478e+02
2.420000e-06	2.547120e-06	1.644177e-09	1.801021e+01	1.113364e+02
2.430000e-06	2.587247e-06	1.673462e-09	1.829394e+01	1.131741e+02
2.440000e-06	2.627306e-06	1.703585e-09	1.857719e+01	1.149621e+02
2.450000e-06	2.667193e-06	1.731546e-09	1.885922e+01	1.167018e+02
2.460000e-06	2.706946e-06	1.756293e-09	1.914031e+01	1.183946e+02
2.470000e-06	2.746577e-06	1.781325e-09	1.942053e+01	1.200417e+02
2.480000e-06	2.786077e-06	1.809304e-09	1.969983e+01	1.216444e+02
2.490000e-06	2.825447e-06	1.834244e-09	1.997821e+01	1.232040e+02
2.500000e-06	2.864601e-06	1.854850e-09	2.025505e+01	1.247218e+02
2.510000e-06	2.903496e-06	1.876215e-09	2.053007e+01	1.261990e+02
2.520000e-06	2.942172e-06	1.899270e-09	2.080355e+01	1.276367e+02
2.530000e-06	2.980603e-06	1.920574e-09	2.107528e+01	1.290360e+02
2.540000e-06	3.018761e-06	1.938332e-09	2.134509e+01	1.303980e+02
2.550000e-06	3.056805e-06	1.956835e-09	2.161410e+01	1.317238e+02
2.560000e-06	3.094714e-06	1.977782e-09	2.188214e+01	1.330143e+02
2.570000e-06	3.132370e-06	1.997700e-09	2.214840e+01	1.342705e+02
2.580000e-06	3.169848e-06	2.014954e-09	2.241340e+01	1.354933e+02
2.590000e-06	3.207135e-06	2.033298e-09	2.267705e+01	1.366834e+02
2.600000e-06	3.244123e-06	2.053750e-09	2.293858e+01	1.378416e+02
2.610000e-06	3.280897e-06	2.072551e-09	2.319861e+01	1.389688e+02
2.620000e-06	3.317474e-06	2.088716e-09	2.345724e+01	1.400656e+02
2.630000e-06	3.353787e-06	2.101751e-09	2.371400e+01	1.411327e+02
2.640000e-06	3.389928e-06	2.115547e-09	2.396954e+01	1.421707e+02
2.650000e-06	3.425853e-06	2.132439e-09	2.422356e+01	1.431803e+02
2.660000e-06	3.461605e-06	2.146967e-09	2.447636e+01	1.441619e+02
2.670000e-06	3.497330e-06	2.159691e-09	2.472896e+01	1.451162e+02
2.680000e-06	3.532872e-06	2.176237e-09	2.498027e+01	1.460438e+02
2.690000e-06	3.568124e-06	2.195790e-09	2.522954e+01	1.469450e+02
2.700000e-06	3.603156e-06	2.212037e-09	2.547724e+01	1.478206e+02
2.710000e-06	3.637839e-06	2.223505e-09	2.572248e+01	1.486708e+02
2.720000e-06	3.672020e-06	2.235274e-09	2.596416e+01	1.494963e+02
2.730000e-06	3.705712e-06	2.247496e-09	2.620239e+01	1.502976e+02
2.740000e-06	3.738987e-06	2.255664e-09	2.643767e+01	1.510751e+02
2.750000e-06	3.771767e-06	2.261561e-09	2.666946e+01	1.518294e+02
2.760000e-06	3.804131e-06	2.272997e-09	2.689830e+01	1.525610e+02
2.770000e-06	3.836406e-06	2.289706e-09	2.712651e+01	1.532704e+02
2.780000e-06	3.868527e-06	2.303817e-09	2.735363e+01	1.539581e+02
2.790000e-06	3.900400e-06	2.313424e-09	2.757899e+01	1.546247e+02
2.800000e-06	3.932125e-06	2.324274e-09	2.780332e+01	1.552708e+02
2.810000e-06	3.963680e-06	2.335054e-09	2.802643e+01	1.558968e+02
2.820000e-06	3.995019e-06	2.343543e-09	2.824803e+01	1.565034e+02
2.830000e-06	4.026033e-06	2.349963e-09	2.846732e+01	1.570911e+02
2.840000e-06	4.056721e-06	2.358005e-09	2.868431e+01	1.576606e+02
2.850000e-06	4.087074e-06	2.371747e-09	2.889894e+01	1.582124e+02
2.860000e-06	4.117118e-06	2.385975e-09	2.911136e+01	1.587471e+02
2.870000e-06	4.146946e-06	2.396257e-09	2.932228e+01	1.592654e+02
2.880000e-06	4.176536e-06	2.401548e-09	2.953150e+01	1.597678e+02
2.890000e-06	4.205933e-06	2.407552e-09	2.973936e+01	1.602549e+02
2.900000e-06	4.235010e-06	2.417990e-09	2.994496e+01	1.607273e+02
